//Species Name
N2

//Temperature [K]   Specific Heat [J/Kmol*K]    Static Enthalpy [J/Kmol]   Entropy [J/Kmol*K]
   200.00000000           2.91287325e+04          -2.85772901e+06           1.79983160e+05
   205.00000000           2.91256323e+04          -2.71209320e+06           1.80702386e+05
   210.00000000           2.91227980e+04          -2.56647224e+06           1.81404207e+05
   215.00000000           2.91202373e+04          -2.42086477e+06           1.82089451e+05
   220.00000000           2.91179582e+04          -2.27526940e+06           1.82758884e+05
   225.00000000           2.91159680e+04          -2.12968470e+06           1.83413225e+05
   230.00000000           2.91142742e+04          -1.98410922e+06           1.84053143e+05
   235.00000000           2.91128839e+04          -1.83854146e+06           1.84679265e+05
   240.00000000           2.91118042e+04          -1.69297987e+06           1.85292179e+05
   245.00000000           2.91110419e+04          -1.54742289e+06           1.85892435e+05
   250.00000000           2.91106036e+04          -1.40186891e+06           1.86480552e+05
   255.00000000           2.91104959e+04          -1.25631630e+06           1.87057017e+05
   260.00000000           2.91107251e+04          -1.11076339e+06           1.87622289e+05
   265.00000000           2.91112973e+04          -9.65208475e+05           1.88176800e+05
   270.00000000           2.91122185e+04          -8.19649832e+05           1.88720961e+05
   275.00000000           2.91134944e+04          -6.74085699e+05           1.89255156e+05
   280.00000000           2.91151307e+04          -5.28514287e+05           1.89779752e+05
   285.00000000           2.91171328e+04          -3.82933782e+05           1.90295094e+05
   290.00000000           2.91195060e+04          -2.37342341e+05           1.90801512e+05
   295.00000000           2.91222553e+04          -9.17380954e+04           1.91299316e+05
   300.00000000           2.91253856e+04           5.38808471e+04           1.91788803e+05
   305.00000000           2.91289018e+04           1.99516404e+05           1.92270254e+05
   310.00000000           2.91328082e+04           3.45170515e+05           1.92743936e+05
   315.00000000           2.91371094e+04           4.90845144e+05           1.93210105e+05
   320.00000000           2.91418096e+04           6.36542275e+05           1.93669003e+05
   325.00000000           2.91469126e+04           7.82263911e+05           1.94120862e+05
   330.00000000           2.91524225e+04           9.28012079e+05           1.94565903e+05
   335.00000000           2.91583429e+04           1.07378882e+06           1.95004337e+05
   340.00000000           2.91646772e+04           1.21959620e+06           1.95436367e+05
   345.00000000           2.91714289e+04           1.36543629e+06           1.95862185e+05
   350.00000000           2.91786010e+04           1.51131119e+06           1.96281976e+05
   355.00000000           2.91861966e+04           1.65722300e+06           1.96695917e+05
   360.00000000           2.91942184e+04           1.80317386e+06           1.97104178e+05
   365.00000000           2.92026691e+04           1.94916590e+06           1.97506921e+05
   370.00000000           2.92115511e+04           2.09520127e+06           1.97904302e+05
   375.00000000           2.92208666e+04           2.24128214e+06           1.98296471e+05
   380.00000000           2.92306179e+04           2.38741067e+06           1.98683572e+05
   385.00000000           2.92408067e+04           2.53358904e+06           1.99065743e+05
   390.00000000           2.92514349e+04           2.67981947e+06           1.99443117e+05
   395.00000000           2.92625040e+04           2.82610413e+06           1.99815822e+05
   400.00000000           2.92740154e+04           2.97244524e+06           2.00183980e+05
   405.00000000           2.92859703e+04           3.11884502e+06           2.00547711e+05
   410.00000000           2.92983698e+04           3.26530569e+06           2.00907128e+05
   415.00000000           2.93112147e+04           3.41182946e+06           2.01262341e+05
   420.00000000           2.93245057e+04           3.55841858e+06           2.01613457e+05
   425.00000000           2.93382434e+04           3.70507526e+06           2.01960577e+05
   430.00000000           2.93524281e+04           3.85180176e+06           2.02303801e+05
   435.00000000           2.93670599e+04           3.99860029e+06           2.02643223e+05
   440.00000000           2.93821388e+04           4.14547310e+06           2.02978936e+05
   445.00000000           2.93976647e+04           4.29242242e+06           2.03311028e+05
   450.00000000           2.94136371e+04           4.43945049e+06           2.03639585e+05
   455.00000000           2.94300556e+04           4.58655954e+06           2.03964691e+05
   460.00000000           2.94469194e+04           4.73375179e+06           2.04286426e+05
   465.00000000           2.94642277e+04           4.88102947e+06           2.04604867e+05
   470.00000000           2.94819793e+04           5.02839481e+06           2.04920090e+05
   475.00000000           2.95001730e+04           5.17585000e+06           2.05232167e+05
   480.00000000           2.95188074e+04           5.32339727e+06           2.05541170e+05
   485.00000000           2.95378810e+04           5.47103881e+06           2.05847165e+05
   490.00000000           2.95573919e+04           5.61877681e+06           2.06150220e+05
   495.00000000           2.95773382e+04           5.76661345e+06           2.06450398e+05
   500.00000000           2.95977178e+04           5.91455091e+06           2.06747762e+05
   505.00000000           2.96185283e+04           6.06259135e+06           2.07042372e+05
   510.00000000           2.96397674e+04           6.21073691e+06           2.07334287e+05
   515.00000000           2.96614323e+04           6.35898973e+06           2.07623563e+05
   520.00000000           2.96835203e+04           6.50735194e+06           2.07910255e+05
   525.00000000           2.97060283e+04           6.65582563e+06           2.08194417e+05
   530.00000000           2.97289532e+04           6.80441292e+06           2.08476101e+05
   535.00000000           2.97522916e+04           6.95311586e+06           2.08755357e+05
   540.00000000           2.97760399e+04           7.10193651e+06           2.09032235e+05
   545.00000000           2.98001946e+04           7.25087693e+06           2.09306781e+05
   550.00000000           2.98247517e+04           7.39993913e+06           2.09579043e+05
   555.00000000           2.98497071e+04           7.54912511e+06           2.09849064e+05
   560.00000000           2.98750567e+04           7.69843686e+06           2.10116890e+05
   565.00000000           2.99007960e+04           7.84787633e+06           2.10382561e+05
   570.00000000           2.99269204e+04           7.99744546e+06           2.10646121e+05
   575.00000000           2.99534252e+04           8.14714617e+06           2.10907608e+05
   580.00000000           2.99803055e+04           8.29698034e+06           2.11167063e+05
   585.00000000           3.00075561e+04           8.44694984e+06           2.11424523e+05
   590.00000000           3.00351718e+04           8.59705651e+06           2.11680025e+05
   595.00000000           3.00631471e+04           8.74730216e+06           2.11933605e+05
   600.00000000           3.00914763e+04           8.89768857e+06           2.12185299e+05
   605.00000000           3.01201538e+04           9.04821750e+06           2.12435141e+05
   610.00000000           3.01491734e+04           9.19889068e+06           2.12683164e+05
   615.00000000           3.01785290e+04           9.34970979e+06           2.12929401e+05
   620.00000000           3.02082142e+04           9.50067652e+06           2.13173882e+05
   625.00000000           3.02382227e+04           9.65179248e+06           2.13416640e+05
   630.00000000           3.02685476e+04           9.80305927e+06           2.13657704e+05
   635.00000000           3.02991821e+04           9.95447847e+06           2.13897103e+05
   640.00000000           3.03301192e+04           1.01060516e+07           2.14134865e+05
   645.00000000           3.03613517e+04           1.02577802e+07           2.14371020e+05
   650.00000000           3.03928721e+04           1.04096656e+07           2.14605593e+05
   655.00000000           3.04246729e+04           1.05617093e+07           2.14838611e+05
   660.00000000           3.04567463e+04           1.07139128e+07           2.15070100e+05
   665.00000000           3.04890845e+04           1.08662772e+07           2.15300085e+05
   670.00000000           3.05216794e+04           1.10188040e+07           2.15528591e+05
   675.00000000           3.05545225e+04           1.11714945e+07           2.15755641e+05
   680.00000000           3.05876057e+04           1.13243497e+07           2.15981258e+05
   685.00000000           3.06209201e+04           1.14773709e+07           2.16205466e+05
   690.00000000           3.06544570e+04           1.16305592e+07           2.16428286e+05
   695.00000000           3.06882074e+04           1.17839158e+07           2.16649741e+05
   700.00000000           3.07221623e+04           1.19374417e+07           2.16869850e+05
   705.00000000           3.07563122e+04           1.20911378e+07           2.17088635e+05
   710.00000000           3.07906476e+04           1.22450051e+07           2.17306116e+05
   715.00000000           3.08251589e+04           1.23990445e+07           2.17522313e+05
   720.00000000           3.08598363e+04           1.25532570e+07           2.17737244e+05
   725.00000000           3.08946696e+04           1.27076432e+07           2.17950928e+05
   730.00000000           3.09296488e+04           1.28622039e+07           2.18163383e+05
   735.00000000           3.09647634e+04           1.30169399e+07           2.18374627e+05
   740.00000000           3.10000028e+04           1.31718517e+07           2.18584678e+05
   745.00000000           3.10353564e+04           1.33269401e+07           2.18793552e+05
   750.00000000           3.10708132e+04           1.34822055e+07           2.19001266e+05
   755.00000000           3.11063622e+04           1.36376484e+07           2.19207835e+05
   760.00000000           3.11419921e+04           1.37932692e+07           2.19413275e+05
   765.00000000           3.11776914e+04           1.39490684e+07           2.19617603e+05
   770.00000000           3.12134486e+04           1.41050462e+07           2.19820832e+05
   775.00000000           3.12492518e+04           1.42612030e+07           2.20022977e+05
   780.00000000           3.12850891e+04           1.44175388e+07           2.20224053e+05
   785.00000000           3.13209485e+04           1.45740539e+07           2.20424073e+05
   790.00000000           3.13568174e+04           1.47307483e+07           2.20623050e+05
   795.00000000           3.13926836e+04           1.48876221e+07           2.20820999e+05
   800.00000000           3.14285343e+04           1.50446751e+07           2.21017931e+05
   805.00000000           3.14643566e+04           1.52019074e+07           2.21213859e+05
   810.00000000           3.15001376e+04           1.53593186e+07           2.21408797e+05
   815.00000000           3.15358641e+04           1.55169087e+07           2.21602754e+05
   820.00000000           3.15715226e+04           1.56746772e+07           2.21795743e+05
   825.00000000           3.16070998e+04           1.58326237e+07           2.21987776e+05
   830.00000000           3.16425817e+04           1.59907480e+07           2.22178863e+05
   835.00000000           3.16779547e+04           1.61490494e+07           2.22369016e+05
   840.00000000           3.17132045e+04           1.63075273e+07           2.22558244e+05
   845.00000000           3.17483169e+04           1.64661812e+07           2.22746557e+05
   850.00000000           3.17832776e+04           1.66250103e+07           2.22933967e+05
   855.00000000           3.18180719e+04           1.67840137e+07           2.23120481e+05
   860.00000000           3.18526851e+04           1.69431907e+07           2.23306111e+05
   865.00000000           3.18871021e+04           1.71025402e+07           2.23490864e+05
   870.00000000           3.19213080e+04           1.72620613e+07           2.23674751e+05
   875.00000000           3.19552873e+04           1.74217529e+07           2.23857779e+05
   880.00000000           3.19890247e+04           1.75816138e+07           2.24039957e+05
   885.00000000           3.20225044e+04           1.77416427e+07           2.24221293e+05
   890.00000000           3.20557106e+04           1.79018384e+07           2.24401796e+05
   895.00000000           3.20886274e+04           1.80621994e+07           2.24581472e+05
   900.00000000           3.21212385e+04           1.82227242e+07           2.24760330e+05
   905.00000000           3.21535277e+04           1.83834112e+07           2.24938377e+05
   910.00000000           3.21854783e+04           1.85442589e+07           2.25115620e+05
   915.00000000           3.22170737e+04           1.87052654e+07           2.25292066e+05
   920.00000000           3.22482970e+04           1.88664290e+07           2.25467722e+05
   925.00000000           3.22791312e+04           1.90277477e+07           2.25642593e+05
   930.00000000           3.23095589e+04           1.91892196e+07           2.25816687e+05
   935.00000000           3.23395629e+04           1.93508426e+07           2.25990010e+05
   940.00000000           3.23691255e+04           1.95126145e+07           2.26162567e+05
   945.00000000           3.23982289e+04           1.96745331e+07           2.26334364e+05
   950.00000000           3.24268553e+04           1.98365960e+07           2.26505407e+05
   955.00000000           3.24549864e+04           1.99988008e+07           2.26675701e+05
   960.00000000           3.24826042e+04           2.01611450e+07           2.26845252e+05
   965.00000000           3.25096900e+04           2.03236260e+07           2.27014063e+05
   970.00000000           3.25362252e+04           2.04862410e+07           2.27182141e+05
   975.00000000           3.25621910e+04           2.06489873e+07           2.27349490e+05
   980.00000000           3.25875685e+04           2.08118619e+07           2.27516114e+05
   985.00000000           3.26123385e+04           2.09748620e+07           2.27682017e+05
   990.00000000           3.26364816e+04           2.11379843e+07           2.27847205e+05
   995.00000000           3.26599783e+04           2.13012257e+07           2.28011680e+05
  1000.00000000           3.27172873e+04           2.14714786e+07           2.28184067e+05
  1005.00000000           3.27440724e+04           2.16351320e+07           2.28347312e+05
  1010.00000000           3.27707501e+04           2.17989191e+07           2.28509880e+05
  1015.00000000           3.27973208e+04           2.19628394e+07           2.28671777e+05
  1020.00000000           3.28237850e+04           2.21268922e+07           2.28833009e+05
  1025.00000000           3.28501432e+04           2.22910770e+07           2.28993581e+05
  1030.00000000           3.28763958e+04           2.24553934e+07           2.29153500e+05
  1035.00000000           3.29025435e+04           2.26198408e+07           2.29312771e+05
  1040.00000000           3.29285865e+04           2.27844187e+07           2.29471401e+05
  1045.00000000           3.29545255e+04           2.29491265e+07           2.29629394e+05
  1050.00000000           3.29803608e+04           2.31139638e+07           2.29786757e+05
  1055.00000000           3.30060931e+04           2.32789300e+07           2.29943495e+05
  1060.00000000           3.30317226e+04           2.34440245e+07           2.30099613e+05
  1065.00000000           3.30572500e+04           2.36092470e+07           2.30255116e+05
  1070.00000000           3.30826757e+04           2.37745969e+07           2.30410011e+05
  1075.00000000           3.31080001e+04           2.39400736e+07           2.30564302e+05
  1080.00000000           3.31332238e+04           2.41056767e+07           2.30717994e+05
  1085.00000000           3.31583473e+04           2.42714057e+07           2.30871093e+05
  1090.00000000           3.31833709e+04           2.44372600e+07           2.31023603e+05
  1095.00000000           3.32082953e+04           2.46032392e+07           2.31175529e+05
  1100.00000000           3.32331208e+04           2.47693428e+07           2.31326877e+05
  1105.00000000           3.32578479e+04           2.49355703e+07           2.31477650e+05
  1110.00000000           3.32824772e+04           2.51019211e+07           2.31627854e+05
  1115.00000000           3.33070091e+04           2.52683949e+07           2.31777494e+05
  1120.00000000           3.33314440e+04           2.54349910e+07           2.31926573e+05
  1125.00000000           3.33557825e+04           2.56017091e+07           2.32075097e+05
  1130.00000000           3.33800250e+04           2.57685487e+07           2.32223071e+05
  1135.00000000           3.34041720e+04           2.59355092e+07           2.32370497e+05
  1140.00000000           3.34282241e+04           2.61025903e+07           2.32517382e+05
  1145.00000000           3.34521815e+04           2.62697913e+07           2.32663729e+05
  1150.00000000           3.34760449e+04           2.64371119e+07           2.32809542e+05
  1155.00000000           3.34998148e+04           2.66045516e+07           2.32954826e+05
  1160.00000000           3.35234915e+04           2.67721099e+07           2.33099585e+05
  1165.00000000           3.35470756e+04           2.69397864e+07           2.33243823e+05
  1170.00000000           3.35705675e+04           2.71075805e+07           2.33387544e+05
  1175.00000000           3.35939678e+04           2.72754919e+07           2.33530752e+05
  1180.00000000           3.36172768e+04           2.74435200e+07           2.33673452e+05
  1185.00000000           3.36404951e+04           2.76116645e+07           2.33815646e+05
  1190.00000000           3.36636232e+04           2.77799248e+07           2.33957339e+05
  1195.00000000           3.36866615e+04           2.79483006e+07           2.34098535e+05
  1200.00000000           3.37096105e+04           2.81167913e+07           2.34239237e+05
  1205.00000000           3.37324707e+04           2.82853966e+07           2.34379449e+05
  1210.00000000           3.37552426e+04           2.84541159e+07           2.34519176e+05
  1215.00000000           3.37779266e+04           2.86229488e+07           2.34658420e+05
  1220.00000000           3.38005232e+04           2.87918950e+07           2.34797185e+05
  1225.00000000           3.38230329e+04           2.89609539e+07           2.34935474e+05
  1230.00000000           3.38454561e+04           2.91301252e+07           2.35073292e+05
  1235.00000000           3.38677934e+04           2.92994083e+07           2.35210642e+05
  1240.00000000           3.38900452e+04           2.94688030e+07           2.35347526e+05
  1245.00000000           3.39122120e+04           2.96383086e+07           2.35483950e+05
  1250.00000000           3.39342942e+04           2.98079249e+07           2.35619915e+05
  1255.00000000           3.39562924e+04           2.99776514e+07           2.35755425e+05
  1260.00000000           3.39782070e+04           3.01474877e+07           2.35890484e+05
  1265.00000000           3.40000385e+04           3.03174334e+07           2.36025094e+05
  1270.00000000           3.40217874e+04           3.04874880e+07           2.36159260e+05
  1275.00000000           3.40434541e+04           3.06576511e+07           2.36292984e+05
  1280.00000000           3.40650392e+04           3.08279224e+07           2.36426268e+05
  1285.00000000           3.40865430e+04           3.09983014e+07           2.36559118e+05
