//Species Name
H2O

//Temperature [K]   Specific Heat [J/Kmol*K]    Static Enthalpy [J/Kmol]   Entropy [J/Kmol*K]
   200.00000000           3.33501413e+04          -2.45105531e+08           1.75484153e+05
   205.00000000           3.33496444e+04          -2.44938783e+08           1.76307646e+05
   210.00000000           3.33506410e+04          -2.44772033e+08           1.77111300e+05
   215.00000000           3.33531057e+04          -2.44605274e+08           1.77896083e+05
   220.00000000           3.33570140e+04          -2.44438499e+08           1.78662897e+05
   225.00000000           3.33623410e+04          -2.44271701e+08           1.79412581e+05
   230.00000000           3.33690625e+04          -2.44104873e+08           1.80145920e+05
   235.00000000           3.33771543e+04          -2.43938008e+08           1.80863646e+05
   240.00000000           3.33865925e+04          -2.43771100e+08           1.81566446e+05
   245.00000000           3.33973532e+04          -2.43604140e+08           1.82254962e+05
   250.00000000           3.34094131e+04          -2.43437124e+08           1.82929798e+05
   255.00000000           3.34227487e+04          -2.43270044e+08           1.83591522e+05
   260.00000000           3.34373372e+04          -2.43102894e+08           1.84240667e+05
   265.00000000           3.34531555e+04          -2.42935669e+08           1.84877736e+05
   270.00000000           3.34701812e+04          -2.42768361e+08           1.85503204e+05
   275.00000000           3.34883917e+04          -2.42600965e+08           1.86117517e+05
   280.00000000           3.35077650e+04          -2.42433475e+08           1.86721100e+05
   285.00000000           3.35282791e+04          -2.42265885e+08           1.87314353e+05
   290.00000000           3.35499122e+04          -2.42098190e+08           1.87897654e+05
   295.00000000           3.35726428e+04          -2.41930384e+08           1.88471363e+05
   300.00000000           3.35964496e+04          -2.41762462e+08           1.89035821e+05
   305.00000000           3.36213116e+04          -2.41594418e+08           1.89591350e+05
   310.00000000           3.36472079e+04          -2.41426247e+08           1.90138258e+05
   315.00000000           3.36741179e+04          -2.41257944e+08           1.90676839e+05
   320.00000000           3.37020211e+04          -2.41089504e+08           1.91207369e+05
   325.00000000           3.37308974e+04          -2.40920922e+08           1.91730113e+05
   330.00000000           3.37607268e+04          -2.40752194e+08           1.92245324e+05
   335.00000000           3.37914896e+04          -2.40583314e+08           1.92753244e+05
   340.00000000           3.38231661e+04          -2.40414277e+08           1.93254100e+05
   345.00000000           3.38557373e+04          -2.40245080e+08           1.93748114e+05
   350.00000000           3.38891838e+04          -2.40075719e+08           1.94235495e+05
   355.00000000           3.39234870e+04          -2.39906187e+08           1.94716442e+05
   360.00000000           3.39586280e+04          -2.39736482e+08           1.95191148e+05
   365.00000000           3.39945886e+04          -2.39566600e+08           1.95659797e+05
   370.00000000           3.40313505e+04          -2.39396535e+08           1.96122564e+05
   375.00000000           3.40688958e+04          -2.39226285e+08           1.96579618e+05
   380.00000000           3.41072066e+04          -2.39055845e+08           1.97031121e+05
   385.00000000           3.41462655e+04          -2.38885211e+08           1.97477227e+05
   390.00000000           3.41860551e+04          -2.38714381e+08           1.97918085e+05
   395.00000000           3.42265584e+04          -2.38543350e+08           1.98353839e+05
   400.00000000           3.42677584e+04          -2.38372114e+08           1.98784625e+05
   405.00000000           3.43096385e+04          -2.38200671e+08           1.99210576e+05
   410.00000000           3.43521823e+04          -2.38029017e+08           1.99631818e+05
   415.00000000           3.43953735e+04          -2.37857148e+08           2.00048474e+05
   420.00000000           3.44391962e+04          -2.37685062e+08           2.00460661e+05
   425.00000000           3.44836347e+04          -2.37512755e+08           2.00868492e+05
   430.00000000           3.45286733e+04          -2.37340225e+08           2.01272076e+05
   435.00000000           3.45742967e+04          -2.37167467e+08           2.01671519e+05
   440.00000000           3.46204898e+04          -2.36994481e+08           2.02066921e+05
   445.00000000           3.46672378e+04          -2.36821262e+08           2.02458380e+05
   450.00000000           3.47145260e+04          -2.36647807e+08           2.02845991e+05
   455.00000000           3.47623399e+04          -2.36474115e+08           2.03229844e+05
   460.00000000           3.48106653e+04          -2.36300183e+08           2.03610027e+05
   465.00000000           3.48594882e+04          -2.36126008e+08           2.03986625e+05
   470.00000000           3.49087949e+04          -2.35951587e+08           2.04359720e+05
   475.00000000           3.49585717e+04          -2.35776919e+08           2.04729392e+05
   480.00000000           3.50088054e+04          -2.35602001e+08           2.05095715e+05
   485.00000000           3.50594828e+04          -2.35426830e+08           2.05458766e+05
   490.00000000           3.51105910e+04          -2.35251405e+08           2.05818615e+05
   495.00000000           3.51621173e+04          -2.35075724e+08           2.06175331e+05
   500.00000000           3.52140494e+04          -2.34899784e+08           2.06528983e+05
   505.00000000           3.52663749e+04          -2.34723583e+08           2.06879634e+05
   510.00000000           3.53190818e+04          -2.34547119e+08           2.07227347e+05
   515.00000000           3.53721584e+04          -2.34370391e+08           2.07572185e+05
   520.00000000           3.54255931e+04          -2.34193397e+08           2.07914205e+05
   525.00000000           3.54793745e+04          -2.34016135e+08           2.08253465e+05
   530.00000000           3.55334916e+04          -2.33838603e+08           2.08590021e+05
   535.00000000           3.55879333e+04          -2.33660799e+08           2.08923926e+05
   540.00000000           3.56426891e+04          -2.33482723e+08           2.09255233e+05
   545.00000000           3.56977484e+04          -2.33304372e+08           2.09583992e+05
   550.00000000           3.57531010e+04          -2.33125745e+08           2.09910254e+05
   555.00000000           3.58087370e+04          -2.32946840e+08           2.10234064e+05
   560.00000000           3.58646464e+04          -2.32767657e+08           2.10555471e+05
   565.00000000           3.59208197e+04          -2.32588193e+08           2.10874519e+05
   570.00000000           3.59772475e+04          -2.32408448e+08           2.11191252e+05
   575.00000000           3.60339207e+04          -2.32228421e+08           2.11505713e+05
   580.00000000           3.60908305e+04          -2.32048109e+08           2.11817943e+05
   585.00000000           3.61479680e+04          -2.31867512e+08           2.12127982e+05
   590.00000000           3.62053248e+04          -2.31686629e+08           2.12435870e+05
   595.00000000           3.62628927e+04          -2.31505458e+08           2.12741644e+05
   600.00000000           3.63206636e+04          -2.31323999e+08           2.13045342e+05
   605.00000000           3.63786297e+04          -2.31142251e+08           2.13347000e+05
   610.00000000           3.64367835e+04          -2.30960213e+08           2.13646654e+05
   615.00000000           3.64951175e+04          -2.30777883e+08           2.13944336e+05
   620.00000000           3.65536246e+04          -2.30595261e+08           2.14240081e+05
   625.00000000           3.66122978e+04          -2.30412347e+08           2.14533921e+05
   630.00000000           3.66711305e+04          -2.30229138e+08           2.14825888e+05
   635.00000000           3.67301162e+04          -2.30045635e+08           2.15116013e+05
   640.00000000           3.67892486e+04          -2.29861837e+08           2.15404325e+05
   645.00000000           3.68485217e+04          -2.29677742e+08           2.15690855e+05
   650.00000000           3.69079295e+04          -2.29493351e+08           2.15975629e+05
   655.00000000           3.69674667e+04          -2.29308663e+08           2.16258678e+05
   660.00000000           3.70271277e+04          -2.29123676e+08           2.16540027e+05
   665.00000000           3.70869073e+04          -2.28938391e+08           2.16819704e+05
   670.00000000           3.71468008e+04          -2.28752807e+08           2.17097734e+05
   675.00000000           3.72068032e+04          -2.28566923e+08           2.17374142e+05
   680.00000000           3.72669102e+04          -2.28380739e+08           2.17648954e+05
   685.00000000           3.73271174e+04          -2.28194254e+08           2.17922193e+05
   690.00000000           3.73874209e+04          -2.28007468e+08           2.18193883e+05
   695.00000000           3.74478167e+04          -2.27820380e+08           2.18464047e+05
   700.00000000           3.75083013e+04          -2.27632989e+08           2.18732708e+05
   705.00000000           3.75688712e+04          -2.27445296e+08           2.18999887e+05
   710.00000000           3.76295233e+04          -2.27257300e+08           2.19265607e+05
   715.00000000           3.76902547e+04          -2.27069001e+08           2.19529887e+05
   720.00000000           3.77510625e+04          -2.26880398e+08           2.19792750e+05
   725.00000000           3.78119443e+04          -2.26691490e+08           2.20054214e+05
   730.00000000           3.78728979e+04          -2.26502278e+08           2.20314300e+05
   735.00000000           3.79339211e+04          -2.26312761e+08           2.20573028e+05
   740.00000000           3.79950121e+04          -2.26122939e+08           2.20830414e+05
   745.00000000           3.80561692e+04          -2.25932811e+08           2.21086480e+05
   750.00000000           3.81173912e+04          -2.25742377e+08           2.21341242e+05
   755.00000000           3.81786767e+04          -2.25551637e+08           2.21594717e+05
   760.00000000           3.82400248e+04          -2.25360590e+08           2.21846925e+05
   765.00000000           3.83014348e+04          -2.25169237e+08           2.22097881e+05
   770.00000000           3.83629062e+04          -2.24977576e+08           2.22347603e+05
   775.00000000           3.84244386e+04          -2.24785607e+08           2.22596106e+05
   780.00000000           3.84860320e+04          -2.24593331e+08           2.22843407e+05
   785.00000000           3.85476865e+04          -2.24400747e+08           2.23089522e+05
   790.00000000           3.86094025e+04          -2.24207854e+08           2.23334466e+05
   795.00000000           3.86711806e+04          -2.24014653e+08           2.23578254e+05
   800.00000000           3.87330215e+04          -2.23821142e+08           2.23820901e+05
   805.00000000           3.87949264e+04          -2.23627323e+08           2.24062421e+05
   810.00000000           3.88568964e+04          -2.23433193e+08           2.24302830e+05
   815.00000000           3.89189331e+04          -2.23238753e+08           2.24542141e+05
   820.00000000           3.89810380e+04          -2.23044004e+08           2.24780368e+05
   825.00000000           3.90432132e+04          -2.22848943e+08           2.25017524e+05
   830.00000000           3.91054607e+04          -2.22653571e+08           2.25253623e+05
   835.00000000           3.91677829e+04          -2.22457888e+08           2.25488678e+05
   840.00000000           3.92301824e+04          -2.22261893e+08           2.25722703e+05
   845.00000000           3.92926620e+04          -2.22065586e+08           2.25955708e+05
   850.00000000           3.93552247e+04          -2.21868967e+08           2.26187709e+05
   855.00000000           3.94178737e+04          -2.21672034e+08           2.26418715e+05
   860.00000000           3.94806125e+04          -2.21474788e+08           2.26648740e+05
   865.00000000           3.95434447e+04          -2.21277228e+08           2.26877796e+05
   870.00000000           3.96063743e+04          -2.21079353e+08           2.27105894e+05
   875.00000000           3.96694054e+04          -2.20881164e+08           2.27333046e+05
   880.00000000           3.97325423e+04          -2.20682659e+08           2.27559262e+05
   885.00000000           3.97957896e+04          -2.20483838e+08           2.27784555e+05
   890.00000000           3.98591521e+04          -2.20284701e+08           2.28008936e+05
   895.00000000           3.99226347e+04          -2.20085246e+08           2.28232415e+05
   900.00000000           3.99862428e+04          -2.19885474e+08           2.28455002e+05
   905.00000000           4.00499817e+04          -2.19685384e+08           2.28676710e+05
   910.00000000           4.01138571e+04          -2.19484974e+08           2.28897547e+05
   915.00000000           4.01778749e+04          -2.19284245e+08           2.29117525e+05
   920.00000000           4.02420412e+04          -2.19083195e+08           2.29336653e+05
   925.00000000           4.03063624e+04          -2.18881824e+08           2.29554942e+05
   930.00000000           4.03708450e+04          -2.18680131e+08           2.29772401e+05
   935.00000000           4.04354957e+04          -2.18478116e+08           2.29989040e+05
   940.00000000           4.05003216e+04          -2.18275776e+08           2.30204869e+05
   945.00000000           4.05653299e+04          -2.18073112e+08           2.30419898e+05
   950.00000000           4.06305280e+04          -2.17870122e+08           2.30634135e+05
   955.00000000           4.06959235e+04          -2.17666806e+08           2.30847590e+05
   960.00000000           4.07615244e+04          -2.17463163e+08           2.31060273e+05
   965.00000000           4.08273388e+04          -2.17259191e+08           2.31272193e+05
   970.00000000           4.08933749e+04          -2.17054889e+08           2.31483358e+05
   975.00000000           4.09596413e+04          -2.16850257e+08           2.31693777e+05
   980.00000000           4.10261468e+04          -2.16645292e+08           2.31903459e+05
   985.00000000           4.10929003e+04          -2.16439995e+08           2.32112414e+05
   990.00000000           4.11599111e+04          -2.16234363e+08           2.32320649e+05
   995.00000000           4.12271886e+04          -2.16028395e+08           2.32528173e+05
  1000.00000000           4.12947418e+04          -2.15822091e+08           2.32734993e+05
  1005.00000000           4.13649694e+04          -2.15615442e+08           2.32941128e+05
  1010.00000000           4.14349831e+04          -2.15408442e+08           2.33146587e+05
  1015.00000000           4.15047831e+04          -2.15201093e+08           2.33351377e+05
  1020.00000000           4.15743700e+04          -2.14993395e+08           2.33555503e+05
  1025.00000000           4.16437443e+04          -2.14785349e+08           2.33758970e+05
  1030.00000000           4.17129065e+04          -2.14576958e+08           2.33961785e+05
  1035.00000000           4.17818570e+04          -2.14368221e+08           2.34163952e+05
  1040.00000000           4.18505963e+04          -2.14159139e+08           2.34365476e+05
  1045.00000000           4.19191250e+04          -2.13949715e+08           2.34566363e+05
  1050.00000000           4.19874433e+04          -2.13739948e+08           2.34766618e+05
  1055.00000000           4.20555520e+04          -2.13529841e+08           2.34966245e+05
  1060.00000000           4.21234513e+04          -2.13319393e+08           2.35165250e+05
  1065.00000000           4.21911419e+04          -2.13108607e+08           2.35363638e+05
  1070.00000000           4.22586242e+04          -2.12897482e+08           2.35561413e+05
  1075.00000000           4.23258986e+04          -2.12686021e+08           2.35758580e+05
  1080.00000000           4.23929656e+04          -2.12474224e+08           2.35955144e+05
  1085.00000000           4.24598257e+04          -2.12262091e+08           2.36151109e+05
  1090.00000000           4.25264794e+04          -2.12049626e+08           2.36346480e+05
  1095.00000000           4.25929272e+04          -2.11836827e+08           2.36541262e+05
  1100.00000000           4.26591695e+04          -2.11623697e+08           2.36735458e+05
  1105.00000000           4.27252067e+04          -2.11410236e+08           2.36929074e+05
  1110.00000000           4.27910395e+04          -2.11196445e+08           2.37122113e+05
  1115.00000000           4.28566682e+04          -2.10982326e+08           2.37314580e+05
  1120.00000000           4.29220932e+04          -2.10767879e+08           2.37506479e+05
  1125.00000000           4.29873152e+04          -2.10553105e+08           2.37697814e+05
  1130.00000000           4.30523345e+04          -2.10338006e+08           2.37888590e+05
  1135.00000000           4.31171516e+04          -2.10122582e+08           2.38078810e+05
  1140.00000000           4.31817670e+04          -2.09906835e+08           2.38268478e+05
  1145.00000000           4.32461812e+04          -2.09690765e+08           2.38457598e+05
  1150.00000000           4.33103946e+04          -2.09474373e+08           2.38646175e+05
  1155.00000000           4.33744076e+04          -2.09257661e+08           2.38834212e+05
  1160.00000000           4.34382208e+04          -2.09040629e+08           2.39021712e+05
  1165.00000000           4.35018346e+04          -2.08823279e+08           2.39208681e+05
  1170.00000000           4.35652496e+04          -2.08605611e+08           2.39395120e+05
  1175.00000000           4.36284660e+04          -2.08387627e+08           2.39581034e+05
  1180.00000000           4.36914845e+04          -2.08169327e+08           2.39766427e+05
  1185.00000000           4.37543054e+04          -2.07950713e+08           2.39951302e+05
  1190.00000000           4.38169293e+04          -2.07731784e+08           2.40135663e+05
  1195.00000000           4.38793565e+04          -2.07512544e+08           2.40319513e+05
  1200.00000000           4.39415877e+04          -2.07292991e+08           2.40502855e+05
  1205.00000000           4.40036231e+04          -2.07073128e+08           2.40685694e+05
  1210.00000000           4.40654634e+04          -2.06852955e+08           2.40868032e+05
  1215.00000000           4.41271088e+04          -2.06632474e+08           2.41049872e+05
  1220.00000000           4.41885600e+04          -2.06411684e+08           2.41231219e+05
  1225.00000000           4.42498174e+04          -2.06190588e+08           2.41412075e+05
  1230.00000000           4.43108813e+04          -2.05969187e+08           2.41592443e+05
  1235.00000000           4.43717524e+04          -2.05747480e+08           2.41772327e+05
  1240.00000000           4.44324310e+04          -2.05525469e+08           2.41951730e+05
  1245.00000000           4.44929175e+04          -2.05303156e+08           2.42130654e+05
  1250.00000000           4.45532126e+04          -2.05080541e+08           2.42309103e+05
  1255.00000000           4.46133165e+04          -2.04857624e+08           2.42487081e+05
  1260.00000000           4.46732298e+04          -2.04634408e+08           2.42664589e+05
  1265.00000000           4.47329529e+04          -2.04410892e+08           2.42841631e+05
  1270.00000000           4.47924863e+04          -2.04187078e+08           2.43018210e+05
  1275.00000000           4.48518304e+04          -2.03962968e+08           2.43194329e+05
  1280.00000000           4.49109857e+04          -2.03738560e+08           2.43369990e+05
  1285.00000000           4.49699526e+04          -2.03513858e+08           2.43545197e+05
