//Species Name
CO2

//Temperature [K]   Specific Heat [J/Kmol*K]    Static Enthalpy [J/Kmol]   Entropy [J/Kmol*K]
   200.00000000           3.23281773e+04          -3.96923644e+08           1.99953894e+05
   205.00000000           3.25941261e+04          -3.96761338e+08           2.00755436e+05
   210.00000000           3.28577273e+04          -3.96597707e+08           2.01544043e+05
   215.00000000           3.31189956e+04          -3.96432764e+08           2.02320268e+05
   220.00000000           3.33779455e+04          -3.96266521e+08           2.03084627e+05
   225.00000000           3.36345916e+04          -3.96098989e+08           2.03837602e+05
   230.00000000           3.38889484e+04          -3.95930179e+08           2.04579643e+05
   235.00000000           3.41410303e+04          -3.95760103e+08           2.05311171e+05
   240.00000000           3.43908520e+04          -3.95588772e+08           2.06032580e+05
   245.00000000           3.46384279e+04          -3.95416198e+08           2.06744243e+05
   250.00000000           3.48837724e+04          -3.95242392e+08           2.07446506e+05
   255.00000000           3.51269001e+04          -3.95067364e+08           2.08139700e+05
   260.00000000           3.53678252e+04          -3.94891126e+08           2.08824132e+05
   265.00000000           3.56065622e+04          -3.94713690e+08           2.09500095e+05
   270.00000000           3.58431255e+04          -3.94535064e+08           2.10167865e+05
   275.00000000           3.60775295e+04          -3.94355262e+08           2.10827703e+05
   280.00000000           3.63097886e+04          -3.94174293e+08           2.11479855e+05
   285.00000000           3.65399169e+04          -3.93992168e+08           2.12124557e+05
   290.00000000           3.67679290e+04          -3.93808897e+08           2.12762030e+05
   295.00000000           3.69938390e+04          -3.93624492e+08           2.13392485e+05
   300.00000000           3.72176613e+04          -3.93438962e+08           2.14016124e+05
   305.00000000           3.74394101e+04          -3.93252319e+08           2.14633136e+05
   310.00000000           3.76590997e+04          -3.93064571e+08           2.15243704e+05
   315.00000000           3.78767442e+04          -3.92875731e+08           2.15848002e+05
   320.00000000           3.80923580e+04          -3.92685807e+08           2.16446195e+05
   325.00000000           3.83059551e+04          -3.92494811e+08           2.17038440e+05
   330.00000000           3.85175499e+04          -3.92302751e+08           2.17624889e+05
   335.00000000           3.87271563e+04          -3.92109639e+08           2.18205685e+05
   340.00000000           3.89347886e+04          -3.91915483e+08           2.18780968e+05
   345.00000000           3.91404608e+04          -3.91720294e+08           2.19350869e+05
   350.00000000           3.93441872e+04          -3.91524082e+08           2.19915516e+05
   355.00000000           3.95459817e+04          -3.91326855e+08           2.20475029e+05
   360.00000000           3.97458585e+04          -3.91128625e+08           2.21029525e+05
   365.00000000           3.99438315e+04          -3.90929400e+08           2.21579117e+05
   370.00000000           4.01399148e+04          -3.90729190e+08           2.22123912e+05
   375.00000000           4.03341225e+04          -3.90528004e+08           2.22664013e+05
   380.00000000           4.05264685e+04          -3.90325852e+08           2.23199521e+05
   385.00000000           4.07169668e+04          -3.90122742e+08           2.23730531e+05
   390.00000000           4.09056314e+04          -3.89918685e+08           2.24257135e+05
   395.00000000           4.10924762e+04          -3.89713689e+08           2.24779422e+05
   400.00000000           4.12775151e+04          -3.89507763e+08           2.25297479e+05
   405.00000000           4.14607620e+04          -3.89300917e+08           2.25811387e+05
   410.00000000           4.16422309e+04          -3.89093159e+08           2.26321227e+05
   415.00000000           4.18219355e+04          -3.88884497e+08           2.26827077e+05
   420.00000000           4.19998898e+04          -3.88674942e+08           2.27329009e+05
   425.00000000           4.21761076e+04          -3.88464501e+08           2.27827098e+05
   430.00000000           4.23506027e+04          -3.88253184e+08           2.28321411e+05
   435.00000000           4.25233889e+04          -3.88040998e+08           2.28812017e+05
   440.00000000           4.26944800e+04          -3.87827953e+08           2.29298982e+05
   445.00000000           4.28638897e+04          -3.87614056e+08           2.29782367e+05
   450.00000000           4.30316318e+04          -3.87399317e+08           2.30262235e+05
   455.00000000           4.31977201e+04          -3.87183743e+08           2.30738645e+05
   460.00000000           4.33621681e+04          -3.86967342e+08           2.31211655e+05
   465.00000000           4.35249897e+04          -3.86750124e+08           2.31681319e+05
   470.00000000           4.36861985e+04          -3.86532095e+08           2.32147694e+05
   475.00000000           4.38458082e+04          -3.86313264e+08           2.32610830e+05
   480.00000000           4.40038323e+04          -3.86093640e+08           2.33070780e+05
   485.00000000           4.41602846e+04          -3.85873229e+08           2.33527593e+05
   490.00000000           4.43151786e+04          -3.85652039e+08           2.33981317e+05
   495.00000000           4.44685279e+04          -3.85430080e+08           2.34432000e+05
   500.00000000           4.46203461e+04          -3.85207357e+08           2.34879687e+05
   505.00000000           4.47706467e+04          -3.84983879e+08           2.35324421e+05
   510.00000000           4.49194432e+04          -3.84759653e+08           2.35766248e+05
   515.00000000           4.50667492e+04          -3.84534687e+08           2.36205209e+05
   520.00000000           4.52125782e+04          -3.84308988e+08           2.36641344e+05
   525.00000000           4.53569437e+04          -3.84082563e+08           2.37074695e+05
   530.00000000           4.54998591e+04          -3.83855421e+08           2.37505299e+05
   535.00000000           4.56413378e+04          -3.83627567e+08           2.37933195e+05
   540.00000000           4.57813933e+04          -3.83399010e+08           2.38358420e+05
   545.00000000           4.59200389e+04          -3.83169756e+08           2.38781010e+05
   550.00000000           4.60572882e+04          -3.82939812e+08           2.39201001e+05
   555.00000000           4.61931544e+04          -3.82709185e+08           2.39618427e+05
   560.00000000           4.63276509e+04          -3.82477882e+08           2.40033321e+05
   565.00000000           4.64607911e+04          -3.82245911e+08           2.40445717e+05
   570.00000000           4.65925882e+04          -3.82013277e+08           2.40855647e+05
   575.00000000           4.67230555e+04          -3.81779987e+08           2.41263142e+05
   580.00000000           4.68522064e+04          -3.81546048e+08           2.41668232e+05
   585.00000000           4.69800541e+04          -3.81311467e+08           2.42070948e+05
   590.00000000           4.71066119e+04          -3.81076250e+08           2.42471319e+05
   595.00000000           4.72318929e+04          -3.80840403e+08           2.42869375e+05
   600.00000000           4.73559105e+04          -3.80603933e+08           2.43265142e+05
   605.00000000           4.74786777e+04          -3.80366846e+08           2.43658649e+05
   610.00000000           4.76002078e+04          -3.80129148e+08           2.44049923e+05
   615.00000000           4.77205139e+04          -3.79890846e+08           2.44438989e+05
   620.00000000           4.78396092e+04          -3.79651945e+08           2.44825874e+05
   625.00000000           4.79575068e+04          -3.79412452e+08           2.45210604e+05
   630.00000000           4.80742197e+04          -3.79172372e+08           2.45593203e+05
   635.00000000           4.81897612e+04          -3.78931712e+08           2.45973695e+05
   640.00000000           4.83041441e+04          -3.78690477e+08           2.46352104e+05
   645.00000000           4.84173817e+04          -3.78448672e+08           2.46728455e+05
   650.00000000           4.85294869e+04          -3.78206305e+08           2.47102769e+05
   655.00000000           4.86404728e+04          -3.77963379e+08           2.47475070e+05
   660.00000000           4.87503523e+04          -3.77719902e+08           2.47845379e+05
   665.00000000           4.88591384e+04          -3.77475878e+08           2.48213719e+05
   670.00000000           4.89668441e+04          -3.77231312e+08           2.48580110e+05
   675.00000000           4.90734824e+04          -3.76986211e+08           2.48944574e+05
   680.00000000           4.91790661e+04          -3.76740579e+08           2.49307131e+05
   685.00000000           4.92836081e+04          -3.76494422e+08           2.49667802e+05
   690.00000000           4.93871215e+04          -3.76247745e+08           2.50026607e+05
   695.00000000           4.94896189e+04          -3.76000552e+08           2.50383564e+05
   700.00000000           4.95911134e+04          -3.75752850e+08           2.50738694e+05
   705.00000000           4.96916176e+04          -3.75504643e+08           2.51092015e+05
   710.00000000           4.97911445e+04          -3.75255936e+08           2.51443546e+05
   715.00000000           4.98897069e+04          -3.75006733e+08           2.51793305e+05
   720.00000000           4.99873175e+04          -3.74757040e+08           2.52141310e+05
   725.00000000           5.00839890e+04          -3.74506861e+08           2.52487579e+05
   730.00000000           5.01797344e+04          -3.74256202e+08           2.52832129e+05
   735.00000000           5.02745662e+04          -3.74005066e+08           2.53174978e+05
   740.00000000           5.03684971e+04          -3.73753458e+08           2.53516143e+05
   745.00000000           5.04615400e+04          -3.73501382e+08           2.53855639e+05
   750.00000000           5.05537074e+04          -3.73248844e+08           2.54193484e+05
   755.00000000           5.06450120e+04          -3.72995847e+08           2.54529694e+05
   760.00000000           5.07354665e+04          -3.72742395e+08           2.54864284e+05
   765.00000000           5.08250835e+04          -3.72488493e+08           2.55197271e+05
   770.00000000           5.09138756e+04          -3.72234146e+08           2.55528670e+05
   775.00000000           5.10018553e+04          -3.71979356e+08           2.55858495e+05
   780.00000000           5.10890353e+04          -3.71724128e+08           2.56186763e+05
   785.00000000           5.11754281e+04          -3.71468467e+08           2.56513488e+05
   790.00000000           5.12610462e+04          -3.71212375e+08           2.56838684e+05
   795.00000000           5.13459021e+04          -3.70955858e+08           2.57162366e+05
   800.00000000           5.14300085e+04          -3.70698918e+08           2.57484549e+05
   805.00000000           5.15133776e+04          -3.70441559e+08           2.57805246e+05
   810.00000000           5.15960220e+04          -3.70183785e+08           2.58124472e+05
   815.00000000           5.16779542e+04          -3.69925600e+08           2.58442239e+05
   820.00000000           5.17591865e+04          -3.69667007e+08           2.58758561e+05
   825.00000000           5.18397315e+04          -3.69408009e+08           2.59073453e+05
   830.00000000           5.19196013e+04          -3.69148610e+08           2.59386926e+05
   835.00000000           5.19988086e+04          -3.68888814e+08           2.59698994e+05
   840.00000000           5.20773655e+04          -3.68628623e+08           2.60009671e+05
   845.00000000           5.21552844e+04          -3.68368042e+08           2.60318967e+05
   850.00000000           5.22325778e+04          -3.68107072e+08           2.60626897e+05
   855.00000000           5.23092577e+04          -3.67845717e+08           2.60933472e+05
   860.00000000           5.23853366e+04          -3.67583980e+08           2.61238705e+05
   865.00000000           5.24608268e+04          -3.67321864e+08           2.61542608e+05
   870.00000000           5.25357404e+04          -3.67059373e+08           2.61845193e+05
   875.00000000           5.26100896e+04          -3.66796508e+08           2.62146471e+05
   880.00000000           5.26838868e+04          -3.66533273e+08           2.62446455e+05
   885.00000000           5.27571441e+04          -3.66269670e+08           2.62745155e+05
   890.00000000           5.28298737e+04          -3.66005702e+08           2.63042585e+05
   895.00000000           5.29020877e+04          -3.65741372e+08           2.63338753e+05
   900.00000000           5.29737983e+04          -3.65476682e+08           2.63633673e+05
   905.00000000           5.30450176e+04          -3.65211635e+08           2.63927355e+05
   910.00000000           5.31157577e+04          -3.64946233e+08           2.64219809e+05
   915.00000000           5.31860307e+04          -3.64680478e+08           2.64511048e+05
   920.00000000           5.32558487e+04          -3.64414373e+08           2.64801081e+05
   925.00000000           5.33252237e+04          -3.64147920e+08           2.65089919e+05
   930.00000000           5.33941678e+04          -3.63881122e+08           2.65377574e+05
   935.00000000           5.34626930e+04          -3.63613979e+08           2.65664054e+05
   940.00000000           5.35308112e+04          -3.63346495e+08           2.65949370e+05
   945.00000000           5.35985345e+04          -3.63078672e+08           2.66233534e+05
   950.00000000           5.36658749e+04          -3.62810511e+08           2.66516554e+05
   955.00000000           5.37328442e+04          -3.62542014e+08           2.66798441e+05
   960.00000000           5.37994544e+04          -3.62273183e+08           2.67079205e+05
   965.00000000           5.38657174e+04          -3.62004020e+08           2.67358855e+05
   970.00000000           5.39316452e+04          -3.61734526e+08           2.67637402e+05
   975.00000000           5.39972495e+04          -3.61464704e+08           2.67914855e+05
   980.00000000           5.40625422e+04          -3.61194554e+08           2.68191223e+05
   985.00000000           5.41275352e+04          -3.60924079e+08           2.68466517e+05
   990.00000000           5.41922404e+04          -3.60653279e+08           2.68740744e+05
   995.00000000           5.42566694e+04          -3.60382157e+08           2.69013916e+05
  1000.00000000           5.43208347e+04          -3.60110713e+08           2.69286043e+05
  1005.00000000           5.43703609e+04          -3.59838985e+08           2.69557093e+05
  1010.00000000           5.44196511e+04          -3.59567010e+08           2.69827044e+05
  1015.00000000           5.44687060e+04          -3.59294789e+08           2.70095905e+05
  1020.00000000           5.45175264e+04          -3.59022324e+08           2.70363685e+05
  1025.00000000           5.45661130e+04          -3.58749614e+08           2.70630394e+05
  1030.00000000           5.46144666e+04          -3.58476663e+08           2.70896040e+05
  1035.00000000           5.46625880e+04          -3.58203470e+08           2.71160634e+05
  1040.00000000           5.47104779e+04          -3.57930037e+08           2.71424184e+05
  1045.00000000           5.47581371e+04          -3.57656366e+08           2.71686700e+05
  1050.00000000           5.48055663e+04          -3.57382456e+08           2.71948189e+05
  1055.00000000           5.48527664e+04          -3.57108310e+08           2.72208660e+05
  1060.00000000           5.48997381e+04          -3.56833929e+08           2.72468123e+05
  1065.00000000           5.49464821e+04          -3.56559313e+08           2.72726585e+05
  1070.00000000           5.49929991e+04          -3.56284465e+08           2.72984055e+05
  1075.00000000           5.50392901e+04          -3.56009384e+08           2.73240541e+05
  1080.00000000           5.50853556e+04          -3.55734072e+08           2.73496051e+05
  1085.00000000           5.51311965e+04          -3.55458531e+08           2.73750593e+05
  1090.00000000           5.51768135e+04          -3.55182761e+08           2.74004175e+05
  1095.00000000           5.52222074e+04          -3.54906763e+08           2.74256805e+05
  1100.00000000           5.52673788e+04          -3.54630539e+08           2.74508490e+05
  1105.00000000           5.53123287e+04          -3.54354089e+08           2.74759238e+05
  1110.00000000           5.53570576e+04          -3.54077416e+08           2.75009057e+05
  1115.00000000           5.54015664e+04          -3.53800519e+08           2.75257953e+05
  1120.00000000           5.54458558e+04          -3.53523401e+08           2.75505934e+05
  1125.00000000           5.54899266e+04          -3.53246061e+08           2.75753008e+05
  1130.00000000           5.55337795e+04          -3.52968502e+08           2.75999180e+05
  1135.00000000           5.55774151e+04          -3.52690724e+08           2.76244459e+05
  1140.00000000           5.56208344e+04          -3.52412728e+08           2.76488852e+05
  1145.00000000           5.56640380e+04          -3.52134516e+08           2.76732364e+05
  1150.00000000           5.57070266e+04          -3.51856088e+08           2.76975003e+05
  1155.00000000           5.57498010e+04          -3.51577446e+08           2.77216775e+05
  1160.00000000           5.57923620e+04          -3.51298590e+08           2.77457687e+05
  1165.00000000           5.58347102e+04          -3.51019522e+08           2.77697746e+05
  1170.00000000           5.58768464e+04          -3.50740243e+08           2.77936957e+05
  1175.00000000           5.59187714e+04          -3.50460754e+08           2.78175328e+05
  1180.00000000           5.59604858e+04          -3.50181056e+08           2.78412864e+05
  1185.00000000           5.60019904e+04          -3.49901150e+08           2.78649571e+05
  1190.00000000           5.60432859e+04          -3.49621037e+08           2.78885456e+05
  1195.00000000           5.60843731e+04          -3.49340717e+08           2.79120525e+05
  1200.00000000           5.61252527e+04          -3.49060193e+08           2.79354783e+05
  1205.00000000           5.61659254e+04          -3.48779465e+08           2.79588237e+05
  1210.00000000           5.62063919e+04          -3.48498534e+08           2.79820893e+05
  1215.00000000           5.62466530e+04          -3.48217402e+08           2.80052755e+05
  1220.00000000           5.62867094e+04          -3.47936068e+08           2.80283830e+05
  1225.00000000           5.63265617e+04          -3.47654535e+08           2.80514123e+05
  1230.00000000           5.63662108e+04          -3.47372803e+08           2.80743640e+05
  1235.00000000           5.64056573e+04          -3.47090873e+08           2.80972387e+05
  1240.00000000           5.64449020e+04          -3.46808747e+08           2.81200368e+05
  1245.00000000           5.64839456e+04          -3.46526424e+08           2.81427590e+05
  1250.00000000           5.65227888e+04          -3.46243907e+08           2.81654056e+05
  1255.00000000           5.65614323e+04          -3.45961197e+08           2.81879774e+05
  1260.00000000           5.65998768e+04          -3.45678293e+08           2.82104747e+05
  1265.00000000           5.66381230e+04          -3.45395198e+08           2.82328981e+05
  1270.00000000           5.66761717e+04          -3.45111913e+08           2.82552481e+05
  1275.00000000           5.67140236e+04          -3.44828437e+08           2.82775251e+05
  1280.00000000           5.67516793e+04          -3.44544773e+08           2.82997298e+05
  1285.00000000           5.67891396e+04          -3.44260920e+08           2.83218625e+05
