//Species Name
H2

//Temperature [K]   Specific Heat [J/Kmol*K]    Static Enthalpy [J/Kmol]   Entropy [J/Kmol*K]
   200.00000000           2.75272312e+04          -2.77544610e+06           1.19407015e+05
   205.00000000           2.76239565e+04          -2.63756656e+06           1.20087932e+05
   210.00000000           2.77169645e+04          -2.49921273e+06           1.20754725e+05
   215.00000000           2.78063429e+04          -2.36040297e+06           1.21407973e+05
   220.00000000           2.78921782e+04          -2.22115521e+06           1.22048217e+05
   225.00000000           2.79745560e+04          -2.08148695e+06           1.22675963e+05
   230.00000000           2.80535612e+04          -1.94141527e+06           1.23291684e+05
   235.00000000           2.81292777e+04          -1.80095682e+06           1.23895827e+05
   240.00000000           2.82017882e+04          -1.66012783e+06           1.24488810e+05
   245.00000000           2.82711749e+04          -1.51894414e+06           1.25071029e+05
   250.00000000           2.83375187e+04          -1.37742116e+06           1.25642856e+05
   255.00000000           2.84009000e+04          -1.23557389e+06           1.26204644e+05
   260.00000000           2.84613978e+04          -1.09341696e+06           1.26756725e+05
   265.00000000           2.85190905e+04          -9.50964590e+05           1.27299416e+05
   270.00000000           2.85740556e+04          -8.08230604e+05           1.27833015e+05
   275.00000000           2.86263695e+04          -6.65228452e+05           1.28357806e+05
   280.00000000           2.86761077e+04          -5.21971202e+05           1.28874061e+05
   285.00000000           2.87233450e+04          -3.78471544e+05           1.29382037e+05
   290.00000000           2.87681549e+04          -2.34741798e+05           1.29881978e+05
   295.00000000           2.88106104e+04          -9.07939185e+04           1.30374118e+05
   300.00000000           2.88507834e+04           5.33605022e+04           1.30858681e+05
   305.00000000           2.88887446e+04           1.97710229e+05           1.31335880e+05
   310.00000000           2.89245644e+04           3.42244379e+05           1.31805920e+05
   315.00000000           2.89583116e+04           4.86952419e+05           1.32268995e+05
   320.00000000           2.89900546e+04           6.31824155e+05           1.32725292e+05
   325.00000000           2.90198606e+04           7.76849736e+05           1.33174993e+05
   330.00000000           2.90477960e+04           9.22019643e+05           1.33618267e+05
   335.00000000           2.90739262e+04           1.06732469e+06           1.34055283e+05
   340.00000000           2.90983158e+04           1.21275600e+06           1.34486198e+05
   345.00000000           2.91210283e+04           1.35830505e+06           1.34911166e+05
   350.00000000           2.91421264e+04           1.50396360e+06           1.35330334e+05
   355.00000000           2.91616719e+04           1.64972373e+06           1.35743844e+05
   360.00000000           2.91797257e+04           1.79557783e+06           1.36151834e+05
   365.00000000           2.91963476e+04           1.94151860e+06           1.36554436e+05
   370.00000000           2.92115967e+04           2.08753902e+06           1.36951776e+05
   375.00000000           2.92255311e+04           2.23363237e+06           1.37343979e+05
   380.00000000           2.92382078e+04           2.37979223e+06           1.37731163e+05
   385.00000000           2.92496832e+04           2.52601245e+06           1.38113443e+05
   390.00000000           2.92600126e+04           2.67228715e+06           1.38490931e+05
   395.00000000           2.92692503e+04           2.81861076e+06           1.38863735e+05
   400.00000000           2.92774499e+04           2.96497793e+06           1.39231959e+05
   405.00000000           2.92846639e+04           3.11138361e+06           1.39595704e+05
   410.00000000           2.92909440e+04           3.25782301e+06           1.39955069e+05
   415.00000000           2.92963409e+04           3.40429158e+06           1.40310149e+05
   420.00000000           2.93009044e+04           3.55078503e+06           1.40661036e+05
   425.00000000           2.93046833e+04           3.69729932e+06           1.41007819e+05
   430.00000000           2.93077257e+04           3.84383064e+06           1.41350586e+05
   435.00000000           2.93100785e+04           3.99037542e+06           1.41689422e+05
   440.00000000           2.93117880e+04           4.13693035e+06           1.42024408e+05
   445.00000000           2.93128993e+04           4.28349231e+06           1.42355625e+05
   450.00000000           2.93134566e+04           4.43005842e+06           1.42683151e+05
   455.00000000           2.93135035e+04           4.57662602e+06           1.43007060e+05
   460.00000000           2.93130822e+04           4.72319267e+06           1.43327428e+05
   465.00000000           2.93122343e+04           4.86975613e+06           1.43644325e+05
   470.00000000           2.93110005e+04           5.01631437e+06           1.43957821e+05
   475.00000000           2.93094204e+04           5.16286556e+06           1.44267985e+05
   480.00000000           2.93075327e+04           5.30940806e+06           1.44574884e+05
   485.00000000           2.93053754e+04           5.45594044e+06           1.44878580e+05
   490.00000000           2.93029854e+04           5.60246143e+06           1.45179139e+05
   495.00000000           2.93003985e+04           5.74896996e+06           1.45476621e+05
   500.00000000           2.92976501e+04           5.89546515e+06           1.45771086e+05
   505.00000000           2.92947741e+04           6.04194625e+06           1.46062593e+05
   510.00000000           2.92918038e+04           6.18841273e+06           1.46351199e+05
   515.00000000           2.92887716e+04           6.33486419e+06           1.46636960e+05
   520.00000000           2.92857089e+04           6.48130040e+06           1.46919931e+05
   525.00000000           2.92826462e+04           6.62772128e+06           1.47200165e+05
   530.00000000           2.92796130e+04           6.77412691e+06           1.47477713e+05
   535.00000000           2.92766379e+04           6.92051750e+06           1.47752627e+05
   540.00000000           2.92737488e+04           7.06689343e+06           1.48024956e+05
   545.00000000           2.92709723e+04           7.21325518e+06           1.48294749e+05
   550.00000000           2.92683344e+04           7.35960338e+06           1.48562054e+05
   555.00000000           2.92658601e+04           7.50593880e+06           1.48826916e+05
   560.00000000           2.92635733e+04           7.65226230e+06           1.49089382e+05
   565.00000000           2.92614973e+04           7.79857488e+06           1.49349495e+05
   570.00000000           2.92596542e+04           7.94487766e+06           1.49607299e+05
   575.00000000           2.92580653e+04           8.09117185e+06           1.49862836e+05
   580.00000000           2.92567510e+04           8.23745877e+06           1.50116148e+05
   585.00000000           2.92557307e+04           8.38373985e+06           1.50367276e+05
   590.00000000           2.92550230e+04           8.53001660e+06           1.50616259e+05
   595.00000000           2.92546454e+04           8.67629063e+06           1.50863137e+05
   600.00000000           2.92546146e+04           8.82256363e+06           1.51107947e+05
   605.00000000           2.92549465e+04           8.96883738e+06           1.51350726e+05
   610.00000000           2.92556558e+04           9.11511372e+06           1.51591511e+05
   615.00000000           2.92567565e+04           9.26139459e+06           1.51830339e+05
   620.00000000           2.92582615e+04           9.40768196e+06           1.52067243e+05
   625.00000000           2.92601831e+04           9.55397790e+06           1.52302257e+05
   630.00000000           2.92625323e+04           9.70028451e+06           1.52535417e+05
   635.00000000           2.92653193e+04           9.84660395e+06           1.52766753e+05
   640.00000000           2.92685536e+04           9.99293844e+06           1.52996298e+05
   645.00000000           2.92722435e+04           1.01392902e+07           1.53224084e+05
   650.00000000           2.92763964e+04           1.02856617e+07           1.53450142e+05
   655.00000000           2.92810191e+04           1.04320550e+07           1.53674500e+05
   660.00000000           2.92861171e+04           1.05784726e+07           1.53897190e+05
   665.00000000           2.92916951e+04           1.07249170e+07           1.54118239e+05
   670.00000000           2.92977569e+04           1.08713904e+07           1.54337676e+05
   675.00000000           2.93043055e+04           1.10178953e+07           1.54555528e+05
   680.00000000           2.93113428e+04           1.11644343e+07           1.54771823e+05
   685.00000000           2.93188699e+04           1.13110096e+07           1.54986586e+05
   690.00000000           2.93268868e+04           1.14576238e+07           1.55199844e+05
   695.00000000           2.93353928e+04           1.16042793e+07           1.55411622e+05
   700.00000000           2.93443862e+04           1.17509785e+07           1.55621944e+05
   705.00000000           2.93538644e+04           1.18977239e+07           1.55830835e+05
   710.00000000           2.93638237e+04           1.20445180e+07           1.56038319e+05
   715.00000000           2.93742597e+04           1.21913630e+07           1.56244418e+05
   720.00000000           2.93851671e+04           1.23382613e+07           1.56449155e+05
   725.00000000           2.93965395e+04           1.24852154e+07           1.56652552e+05
   730.00000000           2.94083696e+04           1.26322275e+07           1.56854631e+05
   735.00000000           2.94206494e+04           1.27792999e+07           1.57055414e+05
   740.00000000           2.94333697e+04           1.29264347e+07           1.57254919e+05
   745.00000000           2.94465206e+04           1.30736343e+07           1.57453168e+05
   750.00000000           2.94600912e+04           1.32209006e+07           1.57650181e+05
   755.00000000           2.94740696e+04           1.33682359e+07           1.57845976e+05
   760.00000000           2.94884430e+04           1.35156420e+07           1.58040572e+05
   765.00000000           2.95031978e+04           1.36631209e+07           1.58233988e+05
   770.00000000           2.95183195e+04           1.38106746e+07           1.58426241e+05
   775.00000000           2.95337924e+04           1.39583047e+07           1.58617348e+05
   780.00000000           2.95496002e+04           1.41060131e+07           1.58807327e+05
   785.00000000           2.95657255e+04           1.42538012e+07           1.58996195e+05
   790.00000000           2.95821500e+04           1.44016708e+07           1.59183966e+05
   795.00000000           2.95988546e+04           1.45496232e+07           1.59370657e+05
   800.00000000           2.96158192e+04           1.46976598e+07           1.59556284e+05
   805.00000000           2.96330226e+04           1.48457818e+07           1.59740860e+05
   810.00000000           2.96504430e+04           1.49939904e+07           1.59924401e+05
   815.00000000           2.96680575e+04           1.51422866e+07           1.60106920e+05
   820.00000000           2.96858422e+04           1.52906712e+07           1.60288430e+05
   825.00000000           2.97037726e+04           1.54391452e+07           1.60468946e+05
   830.00000000           2.97218229e+04           1.55877092e+07           1.60648480e+05
   835.00000000           2.97399666e+04           1.57363636e+07           1.60827045e+05
   840.00000000           2.97581762e+04           1.58851089e+07           1.61004652e+05
   845.00000000           2.97764234e+04           1.60339454e+07           1.61181313e+05
   850.00000000           2.97946788e+04           1.61828732e+07           1.61357039e+05
   855.00000000           2.98129122e+04           1.63318922e+07           1.61531842e+05
   860.00000000           2.98310924e+04           1.64810022e+07           1.61705731e+05
   865.00000000           2.98491875e+04           1.66302030e+07           1.61878718e+05
   870.00000000           2.98671643e+04           1.67794939e+07           1.62050812e+05
   875.00000000           2.98849890e+04           1.69288744e+07           1.62222022e+05
   880.00000000           2.99026267e+04           1.70783435e+07           1.62392358e+05
   885.00000000           2.99200418e+04           1.72279003e+07           1.62561828e+05
   890.00000000           2.99371975e+04           1.73775435e+07           1.62730440e+05
   895.00000000           2.99540562e+04           1.75272717e+07           1.62898203e+05
   900.00000000           2.99705794e+04           1.76770835e+07           1.63065125e+05
   905.00000000           2.99867278e+04           1.78269769e+07           1.63231212e+05
   910.00000000           3.00024609e+04           1.79769501e+07           1.63396472e+05
   915.00000000           3.00177374e+04           1.81270008e+07           1.63560912e+05
   920.00000000           3.00325153e+04           1.82771266e+07           1.63724537e+05
   925.00000000           3.00467514e+04           1.84273250e+07           1.63887354e+05
   930.00000000           3.00604016e+04           1.85775931e+07           1.64049368e+05
   935.00000000           3.00734210e+04           1.87279280e+07           1.64210586e+05
   940.00000000           3.00857637e+04           1.88783262e+07           1.64371011e+05
   945.00000000           3.00973830e+04           1.90287844e+07           1.64530649e+05
   950.00000000           3.01082311e+04           1.91792988e+07           1.64689503e+05
   955.00000000           3.01182595e+04           1.93298653e+07           1.64847579e+05
   960.00000000           3.01274185e+04           1.94804799e+07           1.65004879e+05
   965.00000000           3.01356576e+04           1.96311380e+07           1.65161407e+05
   970.00000000           3.01429256e+04           1.97818349e+07           1.65317166e+05
   975.00000000           3.01491701e+04           1.99325655e+07           1.65472160e+05
   980.00000000           3.01543379e+04           2.00833248e+07           1.65626389e+05
   985.00000000           3.01583747e+04           2.02341070e+07           1.65779858e+05
   990.00000000           3.01612256e+04           2.03849065e+07           1.65932566e+05
   995.00000000           3.01628346e+04           2.05357172e+07           1.66084517e+05
  1000.00000000           3.01631446e+04           2.06865327e+07           1.66235711e+05
  1005.00000000           3.01871218e+04           2.08374084e+07           1.66386210e+05
  1010.00000000           3.02110556e+04           2.09884038e+07           1.66536082e+05
  1015.00000000           3.02349462e+04           2.11395188e+07           1.66685332e+05
  1020.00000000           3.02587937e+04           2.12907532e+07           1.66833965e+05
  1025.00000000           3.02825982e+04           2.14421067e+07           1.66981988e+05
  1030.00000000           3.03063597e+04           2.15935791e+07           1.67129407e+05
  1035.00000000           3.03300783e+04           2.17451702e+07           1.67276227e+05
  1040.00000000           3.03537541e+04           2.18968798e+07           1.67422453e+05
  1045.00000000           3.03773872e+04           2.20487077e+07           1.67568092e+05
  1050.00000000           3.04009776e+04           2.22006536e+07           1.67713148e+05
  1055.00000000           3.04245254e+04           2.23527174e+07           1.67857626e+05
  1060.00000000           3.04480307e+04           2.25048988e+07           1.68001533e+05
  1065.00000000           3.04714936e+04           2.26571976e+07           1.68144874e+05
  1070.00000000           3.04949142e+04           2.28096137e+07           1.68287652e+05
  1075.00000000           3.05182925e+04           2.29621467e+07           1.68429875e+05
  1080.00000000           3.05416286e+04           2.31147965e+07           1.68571545e+05
  1085.00000000           3.05649226e+04           2.32675629e+07           1.68712669e+05
  1090.00000000           3.05881745e+04           2.34204457e+07           1.68853251e+05
  1095.00000000           3.06113845e+04           2.35734446e+07           1.68993296e+05
  1100.00000000           3.06345527e+04           2.37265595e+07           1.69132809e+05
  1105.00000000           3.06576790e+04           2.38797901e+07           1.69271794e+05
  1110.00000000           3.06807636e+04           2.40331362e+07           1.69410255e+05
  1115.00000000           3.07038066e+04           2.41865976e+07           1.69548198e+05
  1120.00000000           3.07268079e+04           2.43401742e+07           1.69685627e+05
  1125.00000000           3.07497678e+04           2.44938656e+07           1.69822546e+05
  1130.00000000           3.07726863e+04           2.46476718e+07           1.69958960e+05
  1135.00000000           3.07955635e+04           2.48015924e+07           1.70094872e+05
  1140.00000000           3.08183993e+04           2.49556274e+07           1.70230288e+05
  1145.00000000           3.08411940e+04           2.51097764e+07           1.70365211e+05
  1150.00000000           3.08639476e+04           2.52640392e+07           1.70499645e+05
  1155.00000000           3.08866602e+04           2.54184158e+07           1.70633594e+05
  1160.00000000           3.09093318e+04           2.55729058e+07           1.70767063e+05
  1165.00000000           3.09319625e+04           2.57275090e+07           1.70900055e+05
  1170.00000000           3.09545524e+04           2.58822253e+07           1.71032575e+05
  1175.00000000           3.09771015e+04           2.60370545e+07           1.71164625e+05
  1180.00000000           3.09996101e+04           2.61919963e+07           1.71296211e+05
  1185.00000000           3.10220780e+04           2.63470505e+07           1.71427335e+05
  1190.00000000           3.10445055e+04           2.65022170e+07           1.71558002e+05
  1195.00000000           3.10668925e+04           2.66574955e+07           1.71688215e+05
  1200.00000000           3.10892392e+04           2.68128858e+07           1.71817977e+05
  1205.00000000           3.11115456e+04           2.69683878e+07           1.71947293e+05
  1210.00000000           3.11338118e+04           2.71240012e+07           1.72076165e+05
  1215.00000000           3.11560378e+04           2.72797259e+07           1.72204598e+05
  1220.00000000           3.11782239e+04           2.74355615e+07           1.72332595e+05
  1225.00000000           3.12003699e+04           2.75915080e+07           1.72460158e+05
  1230.00000000           3.12224761e+04           2.77475652e+07           1.72587293e+05
  1235.00000000           3.12445424e+04           2.79037327e+07           1.72714001e+05
  1240.00000000           3.12665690e+04           2.80600105e+07           1.72840286e+05
  1245.00000000           3.12885559e+04           2.82163984e+07           1.72966152e+05
  1250.00000000           3.13105032e+04           2.83728960e+07           1.73091601e+05
  1255.00000000           3.13324110e+04           2.85295033e+07           1.73216637e+05
  1260.00000000           3.13542793e+04           2.86862201e+07           1.73341262e+05
  1265.00000000           3.13761083e+04           2.88430460e+07           1.73465481e+05
  1270.00000000           3.13978980e+04           2.89999811e+07           1.73589296e+05
  1275.00000000           3.14196484e+04           2.91570250e+07           1.73712710e+05
  1280.00000000           3.14413597e+04           2.93141775e+07           1.73835726e+05
  1285.00000000           3.14630319e+04           2.94714385e+07           1.73958346e+05
