//Species Name
O

//Temperature [K]   Specific Heat [J/Kmol*K]    Static Enthalpy [J/Kmol]   Entropy [J/Kmol*K]
   200.00000000           2.27191150e+04           2.46987127e+08           1.52153985e+05
   205.00000000           2.26662100e+04           2.47100589e+08           1.52714326e+05
   210.00000000           2.26147215e+04           2.47213791e+08           1.53259905e+05
   215.00000000           2.25646220e+04           2.47326739e+08           1.53791451e+05
   220.00000000           2.25158847e+04           2.47439440e+08           1.54309640e+05
   225.00000000           2.24684827e+04           2.47551900e+08           1.54815103e+05
   230.00000000           2.24223896e+04           2.47664127e+08           1.55308429e+05
   235.00000000           2.23775791e+04           2.47776126e+08           1.55790167e+05
   240.00000000           2.23340253e+04           2.47887904e+08           1.56260832e+05
   245.00000000           2.22917025e+04           2.47999468e+08           1.56720907e+05
   250.00000000           2.22505852e+04           2.48110823e+08           1.57170844e+05
   255.00000000           2.22106482e+04           2.48221976e+08           1.57611068e+05
   260.00000000           2.21718667e+04           2.48332932e+08           1.58041979e+05
   265.00000000           2.21342161e+04           2.48443697e+08           1.58463954e+05
   270.00000000           2.20976719e+04           2.48554276e+08           1.58877347e+05
   275.00000000           2.20622100e+04           2.48664675e+08           1.59282494e+05
   280.00000000           2.20278065e+04           2.48774900e+08           1.59679712e+05
   285.00000000           2.19944380e+04           2.48884955e+08           1.60069299e+05
   290.00000000           2.19620810e+04           2.48994846e+08           1.60451538e+05
   295.00000000           2.19307124e+04           2.49104577e+08           1.60826699e+05
   300.00000000           2.19003096e+04           2.49214155e+08           1.61195035e+05
   305.00000000           2.18708499e+04           2.49323582e+08           1.61556788e+05
   310.00000000           2.18423111e+04           2.49432865e+08           1.61912187e+05
   315.00000000           2.18146711e+04           2.49542007e+08           1.62261449e+05
   320.00000000           2.17879083e+04           2.49651013e+08           1.62604783e+05
   325.00000000           2.17620011e+04           2.49759887e+08           1.62942386e+05
   330.00000000           2.17369283e+04           2.49868634e+08           1.63274444e+05
   335.00000000           2.17126690e+04           2.49977258e+08           1.63601139e+05
   340.00000000           2.16892024e+04           2.50085762e+08           1.63922639e+05
   345.00000000           2.16665082e+04           2.50194151e+08           1.64239109e+05
   350.00000000           2.16445662e+04           2.50302428e+08           1.64550705e+05
   355.00000000           2.16233565e+04           2.50410598e+08           1.64857574e+05
   360.00000000           2.16028594e+04           2.50518663e+08           1.65159860e+05
   365.00000000           2.15830555e+04           2.50626628e+08           1.65457698e+05
   370.00000000           2.15639258e+04           2.50734495e+08           1.65751219e+05
   375.00000000           2.15454514e+04           2.50842268e+08           1.66040547e+05
   380.00000000           2.15276138e+04           2.50949950e+08           1.66325803e+05
   385.00000000           2.15103945e+04           2.51057545e+08           1.66607101e+05
   390.00000000           2.14937756e+04           2.51165055e+08           1.66884551e+05
   395.00000000           2.14777392e+04           2.51272484e+08           1.67158258e+05
   400.00000000           2.14622679e+04           2.51379834e+08           1.67428324e+05
   405.00000000           2.14473443e+04           2.51487108e+08           1.67694847e+05
   410.00000000           2.14329514e+04           2.51594308e+08           1.67957919e+05
   415.00000000           2.14190726e+04           2.51701438e+08           1.68217631e+05
   420.00000000           2.14056913e+04           2.51808500e+08           1.68474069e+05
   425.00000000           2.13927913e+04           2.51915496e+08           1.68727317e+05
   430.00000000           2.13803567e+04           2.52022428e+08           1.68977455e+05
   435.00000000           2.13683717e+04           2.52129300e+08           1.69224560e+05
   440.00000000           2.13568211e+04           2.52236113e+08           1.69468707e+05
   445.00000000           2.13456895e+04           2.52342869e+08           1.69709966e+05
   450.00000000           2.13349622e+04           2.52449570e+08           1.69948408e+05
   455.00000000           2.13246244e+04           2.52556219e+08           1.70184098e+05
   460.00000000           2.13146618e+04           2.52662817e+08           1.70417102e+05
   465.00000000           2.13050604e+04           2.52769366e+08           1.70647481e+05
   470.00000000           2.12958062e+04           2.52875868e+08           1.70875295e+05
   475.00000000           2.12868857e+04           2.52982325e+08           1.71100602e+05
   480.00000000           2.12782855e+04           2.53088738e+08           1.71323458e+05
   485.00000000           2.12699927e+04           2.53195108e+08           1.71543917e+05
   490.00000000           2.12619944e+04           2.53301438e+08           1.71762032e+05
   495.00000000           2.12542782e+04           2.53407729e+08           1.71977852e+05
   500.00000000           2.12468316e+04           2.53513981e+08           1.72191427e+05
   505.00000000           2.12396428e+04           2.53620197e+08           1.72402804e+05
   510.00000000           2.12327001e+04           2.53726378e+08           1.72612029e+05
   515.00000000           2.12259919e+04           2.53832525e+08           1.72819146e+05
   520.00000000           2.12195070e+04           2.53938639e+08           1.73024198e+05
   525.00000000           2.12132345e+04           2.54044720e+08           1.73227227e+05
   530.00000000           2.12071638e+04           2.54150771e+08           1.73428273e+05
   535.00000000           2.12012843e+04           2.54256792e+08           1.73627375e+05
   540.00000000           2.11955860e+04           2.54362784e+08           1.73824571e+05
   545.00000000           2.11900590e+04           2.54468748e+08           1.74019898e+05
   550.00000000           2.11846936e+04           2.54574685e+08           1.74213391e+05
   555.00000000           2.11794804e+04           2.54680596e+08           1.74405086e+05
   560.00000000           2.11744105e+04           2.54786480e+08           1.74595015e+05
   565.00000000           2.11694749e+04           2.54892340e+08           1.74783211e+05
   570.00000000           2.11646650e+04           2.54998175e+08           1.74969706e+05
   575.00000000           2.11599726e+04           2.55103987e+08           1.75154531e+05
   580.00000000           2.11553897e+04           2.55209775e+08           1.75337715e+05
   585.00000000           2.11509083e+04           2.55315541e+08           1.75519289e+05
   590.00000000           2.11465211e+04           2.55421284e+08           1.75699279e+05
   595.00000000           2.11422207e+04           2.55527006e+08           1.75877713e+05
   600.00000000           2.11380002e+04           2.55632707e+08           1.76054619e+05
   605.00000000           2.11338529e+04           2.55738386e+08           1.76230022e+05
   610.00000000           2.11297722e+04           2.55844045e+08           1.76403947e+05
   615.00000000           2.11257520e+04           2.55949684e+08           1.76576420e+05
   620.00000000           2.11217864e+04           2.56055303e+08           1.76747463e+05
   625.00000000           2.11178696e+04           2.56160902e+08           1.76917101e+05
   630.00000000           2.11139962e+04           2.56266482e+08           1.77085357e+05
   635.00000000           2.11101612e+04           2.56372042e+08           1.77252251e+05
   640.00000000           2.11063597e+04           2.56477583e+08           1.77417807e+05
   645.00000000           2.11025869e+04           2.56583106e+08           1.77582045e+05
   650.00000000           2.10988386e+04           2.56688609e+08           1.77744986e+05
   655.00000000           2.10951106e+04           2.56794094e+08           1.77906649e+05
   660.00000000           2.10913992e+04           2.56899560e+08           1.78067055e+05
   665.00000000           2.10877008e+04           2.57005008e+08           1.78226222e+05
   670.00000000           2.10840120e+04           2.57110437e+08           1.78384170e+05
   675.00000000           2.10803298e+04           2.57215848e+08           1.78540915e+05
   680.00000000           2.10766515e+04           2.57321241e+08           1.78696477e+05
   685.00000000           2.10729745e+04           2.57426615e+08           1.78850871e+05
   690.00000000           2.10692967e+04           2.57531971e+08           1.79004117e+05
   695.00000000           2.10656159e+04           2.57637308e+08           1.79156229e+05
   700.00000000           2.10619305e+04           2.57742627e+08           1.79307225e+05
   705.00000000           2.10582391e+04           2.57847927e+08           1.79457119e+05
   710.00000000           2.10545403e+04           2.57953209e+08           1.79605928e+05
   715.00000000           2.10508334e+04           2.58058472e+08           1.79753667e+05
   720.00000000           2.10471177e+04           2.58163717e+08           1.79900350e+05
   725.00000000           2.10433926e+04           2.58268944e+08           1.80045993e+05
   730.00000000           2.10396582e+04           2.58374151e+08           1.80190609e+05
   735.00000000           2.10359145e+04           2.58479340e+08           1.80334212e+05
   740.00000000           2.10321618e+04           2.58584510e+08           1.80476816e+05
   745.00000000           2.10284010e+04           2.58689662e+08           1.80618435e+05
   750.00000000           2.10246328e+04           2.58794794e+08           1.80759081e+05
   755.00000000           2.10208584e+04           2.58899908e+08           1.80898767e+05
   760.00000000           2.10170793e+04           2.59005003e+08           1.81037507e+05
   765.00000000           2.10132972e+04           2.59110079e+08           1.81175312e+05
   770.00000000           2.10095141e+04           2.59215136e+08           1.81312195e+05
   775.00000000           2.10057322e+04           2.59320174e+08           1.81448167e+05
   780.00000000           2.10019539e+04           2.59425193e+08           1.81583240e+05
   785.00000000           2.09981821e+04           2.59530194e+08           1.81717426e+05
   790.00000000           2.09944198e+04           2.59635175e+08           1.81850737e+05
   795.00000000           2.09906702e+04           2.59740138e+08           1.81983182e+05
   800.00000000           2.09869369e+04           2.59845082e+08           1.82114774e+05
   805.00000000           2.09832237e+04           2.59950007e+08           1.82245522e+05
   810.00000000           2.09795347e+04           2.60054914e+08           1.82375439e+05
   815.00000000           2.09758742e+04           2.60159803e+08           1.82504532e+05
   820.00000000           2.09722468e+04           2.60264673e+08           1.82632815e+05
   825.00000000           2.09686574e+04           2.60369525e+08           1.82760295e+05
   830.00000000           2.09651112e+04           2.60474360e+08           1.82886983e+05
   835.00000000           2.09616135e+04           2.60579176e+08           1.83012890e+05
   840.00000000           2.09581699e+04           2.60683976e+08           1.83138024e+05
   845.00000000           2.09547864e+04           2.60788758e+08           1.83262395e+05
   850.00000000           2.09514692e+04           2.60893524e+08           1.83386013e+05
   855.00000000           2.09482248e+04           2.60998273e+08           1.83508886e+05
   860.00000000           2.09450597e+04           2.61103006e+08           1.83631024e+05
   865.00000000           2.09419811e+04           2.61207724e+08           1.83752436e+05
   870.00000000           2.09389961e+04           2.61312426e+08           1.83873131e+05
   875.00000000           2.09361122e+04           2.61417114e+08           1.83993117e+05
   880.00000000           2.09333373e+04           2.61521787e+08           1.84112404e+05
   885.00000000           2.09306793e+04           2.61626447e+08           1.84230999e+05
   890.00000000           2.09281465e+04           2.61731094e+08           1.84348911e+05
   895.00000000           2.09257475e+04           2.61835729e+08           1.84466149e+05
   900.00000000           2.09234911e+04           2.61940352e+08           1.84582721e+05
   905.00000000           2.09213864e+04           2.62044964e+08           1.84698635e+05
   910.00000000           2.09194427e+04           2.62149566e+08           1.84813900e+05
   915.00000000           2.09176697e+04           2.62254159e+08           1.84928522e+05
   920.00000000           2.09160772e+04           2.62358743e+08           1.85042511e+05
   925.00000000           2.09146753e+04           2.62463320e+08           1.85155873e+05
   930.00000000           2.09134744e+04           2.62567890e+08           1.85268618e+05
   935.00000000           2.09124853e+04           2.62672455e+08           1.85380752e+05
   940.00000000           2.09117188e+04           2.62777016e+08           1.85492283e+05
   945.00000000           2.09111861e+04           2.62881573e+08           1.85603219e+05
   950.00000000           2.09108987e+04           2.62986128e+08           1.85713568e+05
   955.00000000           2.09108682e+04           2.63090682e+08           1.85823337e+05
   960.00000000           2.09111068e+04           2.63195237e+08           1.85932533e+05
   965.00000000           2.09116266e+04           2.63299794e+08           1.86041163e+05
   970.00000000           2.09124400e+04           2.63404354e+08           1.86149236e+05
   975.00000000           2.09135600e+04           2.63508919e+08           1.86256758e+05
   980.00000000           2.09149995e+04           2.63613490e+08           1.86363736e+05
   985.00000000           2.09167719e+04           2.63718069e+08           1.86470179e+05
   990.00000000           2.09188906e+04           2.63822658e+08           1.86576092e+05
   995.00000000           2.09213695e+04           2.63927259e+08           1.86681483e+05
  1000.00000000           2.09242228e+04           2.64031872e+08           1.86786359e+05
  1005.00000000           2.09232786e+04           2.64136491e+08           1.86890717e+05
  1010.00000000           2.09223377e+04           2.64241105e+08           1.86994553e+05
  1015.00000000           2.09214000e+04           2.64345714e+08           1.87097871e+05
  1020.00000000           2.09204657e+04           2.64450319e+08           1.87200677e+05
  1025.00000000           2.09195347e+04           2.64554919e+08           1.87302975e+05
  1030.00000000           2.09186070e+04           2.64659514e+08           1.87404771e+05
  1035.00000000           2.09176827e+04           2.64764105e+08           1.87506070e+05
  1040.00000000           2.09167617e+04           2.64868691e+08           1.87606876e+05
  1045.00000000           2.09158442e+04           2.64973273e+08           1.87707194e+05
  1050.00000000           2.09149300e+04           2.65077850e+08           1.87807029e+05
  1055.00000000           2.09140193e+04           2.65182422e+08           1.87906386e+05
  1060.00000000           2.09131120e+04           2.65286990e+08           1.88005268e+05
  1065.00000000           2.09122082e+04           2.65391553e+08           1.88103681e+05
  1070.00000000           2.09113078e+04           2.65496112e+08           1.88201628e+05
  1075.00000000           2.09104110e+04           2.65600666e+08           1.88299115e+05
  1080.00000000           2.09095177e+04           2.65705216e+08           1.88396145e+05
  1085.00000000           2.09086279e+04           2.65809761e+08           1.88492723e+05
  1090.00000000           2.09077417e+04           2.65914302e+08           1.88588853e+05
  1095.00000000           2.09068590e+04           2.66018839e+08           1.88684538e+05
  1100.00000000           2.09059800e+04           2.66123371e+08           1.88779784e+05
  1105.00000000           2.09051045e+04           2.66227899e+08           1.88874594e+05
  1110.00000000           2.09042327e+04           2.66332422e+08           1.88968972e+05
  1115.00000000           2.09033645e+04           2.66436941e+08           1.89062922e+05
  1120.00000000           2.09025000e+04           2.66541456e+08           1.89156447e+05
  1125.00000000           2.09016391e+04           2.66645966e+08           1.89249553e+05
  1130.00000000           2.09007820e+04           2.66750472e+08           1.89342241e+05
  1135.00000000           2.08999285e+04           2.66854974e+08           1.89434516e+05
  1140.00000000           2.08990788e+04           2.66959471e+08           1.89526383e+05
  1145.00000000           2.08982329e+04           2.67063965e+08           1.89617843e+05
  1150.00000000           2.08973907e+04           2.67168454e+08           1.89708901e+05
  1155.00000000           2.08965523e+04           2.67272938e+08           1.89799561e+05
  1160.00000000           2.08957177e+04           2.67377419e+08           1.89889825e+05
  1165.00000000           2.08948869e+04           2.67481896e+08           1.89979697e+05
  1170.00000000           2.08940599e+04           2.67586368e+08           1.90069181e+05
  1175.00000000           2.08932368e+04           2.67690836e+08           1.90158280e+05
  1180.00000000           2.08924176e+04           2.67795300e+08           1.90246997e+05
  1185.00000000           2.08916022e+04           2.67899760e+08           1.90335335e+05
  1190.00000000           2.08907908e+04           2.68004216e+08           1.90423299e+05
  1195.00000000           2.08899832e+04           2.68108668e+08           1.90510889e+05
  1200.00000000           2.08891796e+04           2.68213116e+08           1.90598111e+05
  1205.00000000           2.08883800e+04           2.68317560e+08           1.90684967e+05
  1210.00000000           2.08875843e+04           2.68422000e+08           1.90771460e+05
  1215.00000000           2.08867926e+04           2.68526436e+08           1.90857593e+05
  1220.00000000           2.08860049e+04           2.68630868e+08           1.90943368e+05
  1225.00000000           2.08852212e+04           2.68735296e+08           1.91028790e+05
  1230.00000000           2.08844415e+04           2.68839720e+08           1.91113861e+05
  1235.00000000           2.08836659e+04           2.68944140e+08           1.91198583e+05
  1240.00000000           2.08828944e+04           2.69048557e+08           1.91282960e+05
  1245.00000000           2.08821269e+04           2.69152969e+08           1.91366995e+05
  1250.00000000           2.08813636e+04           2.69257378e+08           1.91450689e+05
  1255.00000000           2.08806043e+04           2.69361783e+08           1.91534047e+05
  1260.00000000           2.08798492e+04           2.69466184e+08           1.91617069e+05
  1265.00000000           2.08790982e+04           2.69570582e+08           1.91699761e+05
  1270.00000000           2.08783514e+04           2.69674975e+08           1.91782123e+05
  1275.00000000           2.08776088e+04           2.69779365e+08           1.91864158e+05
  1280.00000000           2.08768704e+04           2.69883751e+08           1.91945869e+05
  1285.00000000           2.08761361e+04           2.69988134e+08           1.92027259e+05
