//Species Name
CO

//Temperature [K]   Viscosity [kg/(m*s)]   Conductivity [W/(m*K)]
   200.00000000          0.00001288              0.01858154
   205.00000000          0.00001316              0.01901520
   210.00000000          0.00001343              0.01944064
   215.00000000          0.00001370              0.01985841
   220.00000000          0.00001397              0.02026899
   225.00000000          0.00001424              0.02067287
   230.00000000          0.00001450              0.02107046
   235.00000000          0.00001476              0.02146214
   240.00000000          0.00001501              0.02184829
   245.00000000          0.00001527              0.02222924
   250.00000000          0.00001552              0.02260529
   255.00000000          0.00001577              0.02297673
   260.00000000          0.00001601              0.02334382
   265.00000000          0.00001626              0.02370680
   270.00000000          0.00001650              0.02406591
   275.00000000          0.00001674              0.02442135
   280.00000000          0.00001697              0.02477332
   285.00000000          0.00001721              0.02512199
   290.00000000          0.00001744              0.02546754
   295.00000000          0.00001768              0.02581012
   300.00000000          0.00001791              0.02614988
   305.00000000          0.00001813              0.02648695
   310.00000000          0.00001836              0.02682147
   315.00000000          0.00001859              0.02715355
   320.00000000          0.00001881              0.02748329
   325.00000000          0.00001903              0.02781082
   330.00000000          0.00001925              0.02813621
   335.00000000          0.00001947              0.02845957
   340.00000000          0.00001969              0.02878099
   345.00000000          0.00001990              0.02910053
   350.00000000          0.00002012              0.02941828
   355.00000000          0.00002033              0.02973431
   360.00000000          0.00002054              0.03004869
   365.00000000          0.00002075              0.03036148
   370.00000000          0.00002096              0.03067274
   375.00000000          0.00002117              0.03098252
   380.00000000          0.00002137              0.03129088
   385.00000000          0.00002158              0.03159788
   390.00000000          0.00002178              0.03190355
   395.00000000          0.00002198              0.03220795
   400.00000000          0.00002219              0.03251111
   405.00000000          0.00002239              0.03281308
   410.00000000          0.00002259              0.03311390
   415.00000000          0.00002278              0.03341360
   420.00000000          0.00002298              0.03371221
   425.00000000          0.00002318              0.03400978
   430.00000000          0.00002337              0.03430633
   435.00000000          0.00002357              0.03460189
   440.00000000          0.00002376              0.03489650
   445.00000000          0.00002395              0.03519017
   450.00000000          0.00002415              0.03548294
   455.00000000          0.00002434              0.03577483
   460.00000000          0.00002453              0.03606586
   465.00000000          0.00002471              0.03635606
   470.00000000          0.00002490              0.03664544
   475.00000000          0.00002509              0.03693404
   480.00000000          0.00002528              0.03722186
   485.00000000          0.00002546              0.03750894
   490.00000000          0.00002565              0.03779527
   495.00000000          0.00002583              0.03808090
   500.00000000          0.00002601              0.03836582
   505.00000000          0.00002619              0.03865006
   510.00000000          0.00002638              0.03893364
   515.00000000          0.00002656              0.03921656
   520.00000000          0.00002674              0.03949884
   525.00000000          0.00002692              0.03978050
   530.00000000          0.00002709              0.04006155
   535.00000000          0.00002727              0.04034200
   540.00000000          0.00002745              0.04062186
   545.00000000          0.00002763              0.04090115
   550.00000000          0.00002780              0.04117988
   555.00000000          0.00002798              0.04145806
   560.00000000          0.00002815              0.04173569
   565.00000000          0.00002832              0.04201280
   570.00000000          0.00002850              0.04228939
   575.00000000          0.00002867              0.04256546
   580.00000000          0.00002884              0.04284104
   585.00000000          0.00002901              0.04311612
   590.00000000          0.00002918              0.04339072
   595.00000000          0.00002935              0.04366484
   600.00000000          0.00002952              0.04393850
   605.00000000          0.00002969              0.04421169
   610.00000000          0.00002986              0.04448444
   615.00000000          0.00003003              0.04475674
   620.00000000          0.00003019              0.04502861
   625.00000000          0.00003036              0.04530004
   630.00000000          0.00003053              0.04557105
   635.00000000          0.00003069              0.04584165
   640.00000000          0.00003086              0.04611183
   645.00000000          0.00003102              0.04638161
   650.00000000          0.00003119              0.04665100
   655.00000000          0.00003135              0.04691999
   660.00000000          0.00003151              0.04718859
   665.00000000          0.00003167              0.04745681
   670.00000000          0.00003184              0.04772466
   675.00000000          0.00003200              0.04799214
   680.00000000          0.00003216              0.04825925
   685.00000000          0.00003232              0.04852600
   690.00000000          0.00003248              0.04879240
   695.00000000          0.00003264              0.04905844
   700.00000000          0.00003280              0.04932414
   705.00000000          0.00003296              0.04958950
   710.00000000          0.00003311              0.04985452
   715.00000000          0.00003327              0.05011921
   720.00000000          0.00003343              0.05038356
   725.00000000          0.00003358              0.05064760
   730.00000000          0.00003374              0.05091131
   735.00000000          0.00003390              0.05117470
   740.00000000          0.00003405              0.05143779
   745.00000000          0.00003421              0.05170056
   750.00000000          0.00003436              0.05196302
   755.00000000          0.00003452              0.05222519
   760.00000000          0.00003467              0.05248705
   765.00000000          0.00003482              0.05274862
   770.00000000          0.00003498              0.05300989
   775.00000000          0.00003513              0.05327088
   780.00000000          0.00003528              0.05353158
   785.00000000          0.00003543              0.05379199
   790.00000000          0.00003558              0.05405213
   795.00000000          0.00003573              0.05431199
   800.00000000          0.00003588              0.05457157
   805.00000000          0.00003603              0.05483088
   810.00000000          0.00003618              0.05508992
   815.00000000          0.00003633              0.05534870
   820.00000000          0.00003648              0.05560721
   825.00000000          0.00003663              0.05586547
   830.00000000          0.00003678              0.05612346
   835.00000000          0.00003693              0.05638120
   840.00000000          0.00003707              0.05663868
   845.00000000          0.00003722              0.05689592
   850.00000000          0.00003737              0.05715290
   855.00000000          0.00003751              0.05740964
   860.00000000          0.00003766              0.05766613
   865.00000000          0.00003781              0.05792239
   870.00000000          0.00003795              0.05817840
   875.00000000          0.00003810              0.05843417
   880.00000000          0.00003824              0.05868971
   885.00000000          0.00003839              0.05894502
   890.00000000          0.00003853              0.05920009
   895.00000000          0.00003867              0.05945493
   900.00000000          0.00003882              0.05970955
   905.00000000          0.00003896              0.05996394
   910.00000000          0.00003910              0.06021811
   915.00000000          0.00003925              0.06047205
   920.00000000          0.00003939              0.06072578
   925.00000000          0.00003953              0.06097928
   930.00000000          0.00003967              0.06123257
   935.00000000          0.00003981              0.06148565
   940.00000000          0.00003995              0.06173851
   945.00000000          0.00004010              0.06199116
   950.00000000          0.00004024              0.06224360
   955.00000000          0.00004038              0.06249584
   960.00000000          0.00004052              0.06274786
   965.00000000          0.00004066              0.06299968
   970.00000000          0.00004079              0.06325130
   975.00000000          0.00004093              0.06350272
   980.00000000          0.00004107              0.06375393
   985.00000000          0.00004121              0.06400495
   990.00000000          0.00004135              0.06425576
   995.00000000          0.00004149              0.06450639
  1000.00000000          0.00004162              0.06475681
  1005.00000000          0.00004176              0.06500708
  1010.00000000          0.00004190              0.06525720
  1015.00000000          0.00004203              0.06550718
  1020.00000000          0.00004217              0.06575703
  1025.00000000          0.00004231              0.06600674
  1030.00000000          0.00004244              0.06625632
  1035.00000000          0.00004258              0.06650576
  1040.00000000          0.00004271              0.06675507
  1045.00000000          0.00004285              0.06700424
  1050.00000000          0.00004298              0.06725329
  1055.00000000          0.00004311              0.06750220
  1060.00000000          0.00004325              0.06775098
  1065.00000000          0.00004338              0.06799963
  1070.00000000          0.00004351              0.06824816
  1075.00000000          0.00004365              0.06849655
  1080.00000000          0.00004378              0.06874482
  1085.00000000          0.00004391              0.06899296
  1090.00000000          0.00004404              0.06924097
  1095.00000000          0.00004417              0.06948886
  1100.00000000          0.00004431              0.06973663
  1105.00000000          0.00004444              0.06998427
  1110.00000000          0.00004457              0.07023179
  1115.00000000          0.00004470              0.07047918
  1120.00000000          0.00004483              0.07072645
  1125.00000000          0.00004496              0.07097361
  1130.00000000          0.00004509              0.07122064
  1135.00000000          0.00004522              0.07146755
  1140.00000000          0.00004535              0.07171434
  1145.00000000          0.00004548              0.07196102
  1150.00000000          0.00004560              0.07220757
  1155.00000000          0.00004573              0.07245401
  1160.00000000          0.00004586              0.07270033
  1165.00000000          0.00004599              0.07294654
  1170.00000000          0.00004612              0.07319263
  1175.00000000          0.00004624              0.07343860
  1180.00000000          0.00004637              0.07368446
  1185.00000000          0.00004650              0.07393021
  1190.00000000          0.00004663              0.07417584
  1195.00000000          0.00004675              0.07442136
  1200.00000000          0.00004688              0.07466677
  1205.00000000          0.00004701              0.07491207
  1210.00000000          0.00004713              0.07515725
  1215.00000000          0.00004726              0.07540233
  1220.00000000          0.00004738              0.07564729
  1225.00000000          0.00004751              0.07589215
  1230.00000000          0.00004764              0.07613690
  1235.00000000          0.00004776              0.07638154
  1240.00000000          0.00004789              0.07662607
  1245.00000000          0.00004801              0.07687049
  1250.00000000          0.00004814              0.07711481
  1255.00000000          0.00004826              0.07735902
  1260.00000000          0.00004838              0.07760312
  1265.00000000          0.00004851              0.07784712
  1270.00000000          0.00004863              0.07809102
  1275.00000000          0.00004876              0.07833481
  1280.00000000          0.00004888              0.07857849
  1285.00000000          0.00004900              0.07882207
  1290.00000000          0.00004913              0.07906555
  1295.00000000          0.00004925              0.07930893
  1300.00000000          0.00004937              0.07955221
  1305.00000000          0.00004950              0.07979538
  1310.00000000          0.00004962              0.08003845
  1315.00000000          0.00004974              0.08028142
  1320.00000000          0.00004986              0.08052429
  1325.00000000          0.00004999              0.08076707
  1330.00000000          0.00005011              0.08100974
  1335.00000000          0.00005023              0.08125231
  1340.00000000          0.00005035              0.08149478
  1345.00000000          0.00005047              0.08173716
  1350.00000000          0.00005060              0.08197944
  1355.00000000          0.00005072              0.08222162
  1360.00000000          0.00005084              0.08246370
  1365.00000000          0.00005096              0.08270569
  1370.00000000          0.00005108              0.08294758
  1375.00000000          0.00005120              0.08318938
  1380.00000000          0.00005132              0.08343108
  1385.00000000          0.00005144              0.08367268
  1390.00000000          0.00005156              0.08391420
  1395.00000000          0.00005169              0.08415561
  1400.00000000          0.00005181              0.08439694
  1405.00000000          0.00005193              0.08463817
  1410.00000000          0.00005205              0.08487930
  1415.00000000          0.00005217              0.08512035
  1420.00000000          0.00005229              0.08536130
  1425.00000000          0.00005241              0.08560216
  1430.00000000          0.00005253              0.08584293
  1435.00000000          0.00005265              0.08608360
  1440.00000000          0.00005276              0.08632419
  1445.00000000          0.00005288              0.08656469
  1450.00000000          0.00005300              0.08680509
  1455.00000000          0.00005312              0.08704541
  1460.00000000          0.00005324              0.08728564
  1465.00000000          0.00005336              0.08752577
  1470.00000000          0.00005348              0.08776582
  1475.00000000          0.00005360              0.08800578
  1480.00000000          0.00005372              0.08824566
  1485.00000000          0.00005384              0.08848544
  1490.00000000          0.00005395              0.08872514
  1495.00000000          0.00005407              0.08896475
  1500.00000000          0.00005419              0.08920427
  1505.00000000          0.00005431              0.08944371
  1510.00000000          0.00005443              0.08968306
  1515.00000000          0.00005454              0.08992233
  1520.00000000          0.00005466              0.09016151
  1525.00000000          0.00005478              0.09040060
  1530.00000000          0.00005490              0.09063961
  1535.00000000          0.00005501              0.09087854
  1540.00000000          0.00005513              0.09111738
  1545.00000000          0.00005525              0.09135613
  1550.00000000          0.00005537              0.09159481
  1555.00000000          0.00005548              0.09183340
  1560.00000000          0.00005560              0.09207191
  1565.00000000          0.00005572              0.09231033
  1570.00000000          0.00005584              0.09254867
  1575.00000000          0.00005595              0.09278693
  1580.00000000          0.00005607              0.09302511
  1585.00000000          0.00005619              0.09326321
  1590.00000000          0.00005630              0.09350122
  1595.00000000          0.00005642              0.09373916
  1600.00000000          0.00005654              0.09397701
  1605.00000000          0.00005665              0.09421478
  1610.00000000          0.00005677              0.09445248
  1615.00000000          0.00005688              0.09469009
  1620.00000000          0.00005700              0.09492762
  1625.00000000          0.00005712              0.09516508
  1630.00000000          0.00005723              0.09540245
  1635.00000000          0.00005735              0.09563975
  1640.00000000          0.00005746              0.09587697
  1645.00000000          0.00005758              0.09611411
  1650.00000000          0.00005770              0.09635117
  1655.00000000          0.00005781              0.09658815
  1660.00000000          0.00005793              0.09682506
  1665.00000000          0.00005804              0.09706189
  1670.00000000          0.00005816              0.09729864
  1675.00000000          0.00005827              0.09753531
  1680.00000000          0.00005839              0.09777191
  1685.00000000          0.00005850              0.09800844
  1690.00000000          0.00005862              0.09824488
  1695.00000000          0.00005873              0.09848125
  1700.00000000          0.00005885              0.09871755
  1705.00000000          0.00005896              0.09895377
  1710.00000000          0.00005908              0.09918991
  1715.00000000          0.00005919              0.09942598
  1720.00000000          0.00005931              0.09966198
  1725.00000000          0.00005942              0.09989790
  1730.00000000          0.00005954              0.10013375
  1735.00000000          0.00005965              0.10036952
  1740.00000000          0.00005977              0.10060522
  1745.00000000          0.00005988              0.10084085
  1750.00000000          0.00005999              0.10107640
  1755.00000000          0.00006011              0.10131188
  1760.00000000          0.00006022              0.10154729
  1765.00000000          0.00006034              0.10178263
  1770.00000000          0.00006045              0.10201789
  1775.00000000          0.00006056              0.10225308
  1780.00000000          0.00006068              0.10248820
  1785.00000000          0.00006079              0.10272325
  1790.00000000          0.00006091              0.10295823
  1795.00000000          0.00006102              0.10319313
  1800.00000000          0.00006113              0.10342797
  1805.00000000          0.00006125              0.10366273
  1810.00000000          0.00006136              0.10389743
  1815.00000000          0.00006147              0.10413205
  1820.00000000          0.00006159              0.10436660
  1825.00000000          0.00006170              0.10460109
  1830.00000000          0.00006182              0.10483550
  1835.00000000          0.00006193              0.10506984
  1840.00000000          0.00006204              0.10530412
  1845.00000000          0.00006215              0.10553833
  1850.00000000          0.00006227              0.10577246
