//Species Name
C4H6

//Temperature [K]   Viscosity [kg/(m*s)]   Conductivity [W/(m*K)]
   200.00000000          0.00000526              0.00675747
   205.00000000          0.00000539              0.00705016
   210.00000000          0.00000552              0.00735081
   215.00000000          0.00000566              0.00765946
   220.00000000          0.00000579              0.00797611
   225.00000000          0.00000593              0.00830078
   230.00000000          0.00000606              0.00863346
   235.00000000          0.00000620              0.00897415
   240.00000000          0.00000633              0.00932284
   245.00000000          0.00000647              0.00967951
   250.00000000          0.00000660              0.01004412
   255.00000000          0.00000674              0.01041666
   260.00000000          0.00000688              0.01079708
   265.00000000          0.00000701              0.01118534
   270.00000000          0.00000715              0.01158138
   275.00000000          0.00000729              0.01198516
   280.00000000          0.00000742              0.01239662
   285.00000000          0.00000756              0.01281567
   290.00000000          0.00000770              0.01324227
   295.00000000          0.00000783              0.01367633
   300.00000000          0.00000797              0.01411777
   305.00000000          0.00000811              0.01456650
   310.00000000          0.00000824              0.01502245
   315.00000000          0.00000838              0.01548551
   320.00000000          0.00000852              0.01595560
   325.00000000          0.00000865              0.01643261
   330.00000000          0.00000879              0.01691645
   335.00000000          0.00000892              0.01740700
   340.00000000          0.00000906              0.01790415
   345.00000000          0.00000919              0.01840781
   350.00000000          0.00000933              0.01891785
   355.00000000          0.00000946              0.01943416
   360.00000000          0.00000960              0.01995662
   365.00000000          0.00000973              0.02048511
   370.00000000          0.00000986              0.02101950
   375.00000000          0.00001000              0.02155969
   380.00000000          0.00001013              0.02210553
   385.00000000          0.00001026              0.02265692
   390.00000000          0.00001039              0.02321371
   395.00000000          0.00001053              0.02377577
   400.00000000          0.00001066              0.02434299
   405.00000000          0.00001079              0.02491523
   410.00000000          0.00001092              0.02549237
   415.00000000          0.00001105              0.02607426
   420.00000000          0.00001118              0.02666078
   425.00000000          0.00001131              0.02725179
   430.00000000          0.00001144              0.02784718
   435.00000000          0.00001157              0.02844679
   440.00000000          0.00001169              0.02905051
   445.00000000          0.00001182              0.02965820
   450.00000000          0.00001195              0.03026973
   455.00000000          0.00001207              0.03088497
   460.00000000          0.00001220              0.03150379
   465.00000000          0.00001233              0.03212606
   470.00000000          0.00001245              0.03275165
   475.00000000          0.00001258              0.03338044
   480.00000000          0.00001270              0.03401229
   485.00000000          0.00001283              0.03464708
   490.00000000          0.00001295              0.03528470
   495.00000000          0.00001307              0.03592500
   500.00000000          0.00001319              0.03656787
   505.00000000          0.00001332              0.03721319
   510.00000000          0.00001344              0.03786084
   515.00000000          0.00001356              0.03851070
   520.00000000          0.00001368              0.03916265
   525.00000000          0.00001380              0.03981658
   530.00000000          0.00001392              0.04047237
   535.00000000          0.00001404              0.04112991
   540.00000000          0.00001416              0.04178909
   545.00000000          0.00001428              0.04244980
   550.00000000          0.00001440              0.04311193
   555.00000000          0.00001451              0.04377538
   560.00000000          0.00001463              0.04444004
   565.00000000          0.00001475              0.04510581
   570.00000000          0.00001487              0.04577259
   575.00000000          0.00001498              0.04644029
   580.00000000          0.00001510              0.04710880
   585.00000000          0.00001521              0.04777804
   590.00000000          0.00001533              0.04844792
   595.00000000          0.00001544              0.04911834
   600.00000000          0.00001556              0.04978921
   605.00000000          0.00001567              0.05046047
   610.00000000          0.00001578              0.05113201
   615.00000000          0.00001590              0.05180376
   620.00000000          0.00001601              0.05247565
   625.00000000          0.00001612              0.05314761
   630.00000000          0.00001623              0.05381954
   635.00000000          0.00001634              0.05449140
   640.00000000          0.00001645              0.05516311
   645.00000000          0.00001656              0.05583461
   650.00000000          0.00001667              0.05650583
   655.00000000          0.00001678              0.05717672
   660.00000000          0.00001689              0.05784722
   665.00000000          0.00001700              0.05851728
   670.00000000          0.00001711              0.05918685
   675.00000000          0.00001722              0.05985588
   680.00000000          0.00001733              0.06052432
   685.00000000          0.00001744              0.06119214
   690.00000000          0.00001754              0.06185929
   695.00000000          0.00001765              0.06252575
   700.00000000          0.00001776              0.06319147
   705.00000000          0.00001786              0.06385643
   710.00000000          0.00001797              0.06452061
   715.00000000          0.00001807              0.06518397
   720.00000000          0.00001818              0.06584651
   725.00000000          0.00001828              0.06650820
   730.00000000          0.00001839              0.06716903
   735.00000000          0.00001849              0.06782900
   740.00000000          0.00001860              0.06848810
   745.00000000          0.00001870              0.06914631
   750.00000000          0.00001880              0.06980366
   755.00000000          0.00001891              0.07046013
   760.00000000          0.00001901              0.07111575
   765.00000000          0.00001911              0.07177051
   770.00000000          0.00001922              0.07242444
   775.00000000          0.00001932              0.07307756
   780.00000000          0.00001942              0.07372988
   785.00000000          0.00001952              0.07438144
   790.00000000          0.00001962              0.07503227
   795.00000000          0.00001972              0.07568239
   800.00000000          0.00001982              0.07633185
   805.00000000          0.00001992              0.07698070
   810.00000000          0.00002002              0.07762897
   815.00000000          0.00002012              0.07827672
   820.00000000          0.00002022              0.07892401
   825.00000000          0.00002032              0.07957088
   830.00000000          0.00002042              0.08021741
   835.00000000          0.00002052              0.08086366
   840.00000000          0.00002062              0.08150971
   845.00000000          0.00002071              0.08215562
   850.00000000          0.00002081              0.08280148
   855.00000000          0.00002091              0.08344737
   860.00000000          0.00002101              0.08409338
   865.00000000          0.00002110              0.08473961
   870.00000000          0.00002120              0.08538615
   875.00000000          0.00002130              0.08603310
   880.00000000          0.00002139              0.08668057
   885.00000000          0.00002149              0.08732868
   890.00000000          0.00002159              0.08797753
   895.00000000          0.00002168              0.08862725
   900.00000000          0.00002178              0.08927796
   905.00000000          0.00002187              0.08992980
   910.00000000          0.00002197              0.09058290
   915.00000000          0.00002206              0.09123739
   920.00000000          0.00002216              0.09189343
   925.00000000          0.00002225              0.09255116
   930.00000000          0.00002234              0.09321074
   935.00000000          0.00002244              0.09387232
   940.00000000          0.00002253              0.09453608
   945.00000000          0.00002262              0.09520218
   950.00000000          0.00002272              0.09587079
   955.00000000          0.00002281              0.09654210
   960.00000000          0.00002290              0.09721629
   965.00000000          0.00002299              0.09789355
   970.00000000          0.00002309              0.09857408
   975.00000000          0.00002318              0.09925807
   980.00000000          0.00002327              0.09994574
   985.00000000          0.00002336              0.10063729
   990.00000000          0.00002345              0.10133295
   995.00000000          0.00002354              0.10203293
  1000.00000000          0.00002364              0.10273746
  1005.00000000          0.00002373              0.10335871
  1010.00000000          0.00002382              0.10397971
  1015.00000000          0.00002391              0.10460046
  1020.00000000          0.00002400              0.10522095
  1025.00000000          0.00002409              0.10584117
  1030.00000000          0.00002418              0.10646112
  1035.00000000          0.00002427              0.10708078
  1040.00000000          0.00002436              0.10770016
  1045.00000000          0.00002444              0.10831923
  1050.00000000          0.00002453              0.10893800
  1055.00000000          0.00002462              0.10955646
  1060.00000000          0.00002471              0.11017459
  1065.00000000          0.00002480              0.11079240
  1070.00000000          0.00002489              0.11140987
  1075.00000000          0.00002498              0.11202700
  1080.00000000          0.00002506              0.11264378
  1085.00000000          0.00002515              0.11326020
  1090.00000000          0.00002524              0.11387625
  1095.00000000          0.00002533              0.11449194
  1100.00000000          0.00002541              0.11510724
  1105.00000000          0.00002550              0.11572217
  1110.00000000          0.00002559              0.11633670
  1115.00000000          0.00002567              0.11695083
  1120.00000000          0.00002576              0.11756455
  1125.00000000          0.00002585              0.11817787
  1130.00000000          0.00002593              0.11879076
  1135.00000000          0.00002602              0.11940324
  1140.00000000          0.00002610              0.12001528
  1145.00000000          0.00002619              0.12062688
  1150.00000000          0.00002627              0.12123804
  1155.00000000          0.00002636              0.12184875
  1160.00000000          0.00002644              0.12245901
  1165.00000000          0.00002653              0.12306880
  1170.00000000          0.00002661              0.12367812
  1175.00000000          0.00002670              0.12428698
  1180.00000000          0.00002678              0.12489535
  1185.00000000          0.00002687              0.12550323
  1190.00000000          0.00002695              0.12611063
  1195.00000000          0.00002703              0.12671753
  1200.00000000          0.00002712              0.12732393
  1205.00000000          0.00002720              0.12792982
  1210.00000000          0.00002728              0.12853520
  1215.00000000          0.00002737              0.12914005
  1220.00000000          0.00002745              0.12974439
  1225.00000000          0.00002753              0.13034820
  1230.00000000          0.00002762              0.13095147
  1235.00000000          0.00002770              0.13155420
  1240.00000000          0.00002778              0.13215639
  1245.00000000          0.00002786              0.13275803
  1250.00000000          0.00002795              0.13335912
  1255.00000000          0.00002803              0.13395964
  1260.00000000          0.00002811              0.13455961
  1265.00000000          0.00002819              0.13515900
  1270.00000000          0.00002827              0.13575783
  1275.00000000          0.00002835              0.13635607
  1280.00000000          0.00002844              0.13695373
  1285.00000000          0.00002852              0.13755081
  1290.00000000          0.00002860              0.13814729
  1295.00000000          0.00002868              0.13874318
  1300.00000000          0.00002876              0.13933847
  1305.00000000          0.00002884              0.13993316
  1310.00000000          0.00002892              0.14052724
  1315.00000000          0.00002900              0.14112071
  1320.00000000          0.00002908              0.14171356
  1325.00000000          0.00002916              0.14230579
  1330.00000000          0.00002924              0.14289739
  1335.00000000          0.00002932              0.14348837
  1340.00000000          0.00002940              0.14407872
  1345.00000000          0.00002948              0.14466843
  1350.00000000          0.00002956              0.14525750
  1355.00000000          0.00002964              0.14584593
  1360.00000000          0.00002971              0.14643371
  1365.00000000          0.00002979              0.14702085
  1370.00000000          0.00002987              0.14760733
  1375.00000000          0.00002995              0.14819315
  1380.00000000          0.00003003              0.14877831
  1385.00000000          0.00003011              0.14936281
  1390.00000000          0.00003018              0.14994665
  1395.00000000          0.00003026              0.15052981
  1400.00000000          0.00003034              0.15111230
  1405.00000000          0.00003042              0.15169411
  1410.00000000          0.00003050              0.15227525
  1415.00000000          0.00003057              0.15285570
  1420.00000000          0.00003065              0.15343547
  1425.00000000          0.00003073              0.15401455
  1430.00000000          0.00003080              0.15459294
  1435.00000000          0.00003088              0.15517064
  1440.00000000          0.00003096              0.15574764
  1445.00000000          0.00003103              0.15632394
  1450.00000000          0.00003111              0.15689954
  1455.00000000          0.00003119              0.15747444
  1460.00000000          0.00003126              0.15804863
  1465.00000000          0.00003134              0.15862211
  1470.00000000          0.00003142              0.15919488
  1475.00000000          0.00003149              0.15976693
  1480.00000000          0.00003157              0.16033827
  1485.00000000          0.00003164              0.16090890
  1490.00000000          0.00003172              0.16147880
  1495.00000000          0.00003179              0.16204798
  1500.00000000          0.00003187              0.16261643
  1505.00000000          0.00003194              0.16318416
  1510.00000000          0.00003202              0.16375115
  1515.00000000          0.00003209              0.16431742
  1520.00000000          0.00003217              0.16488295
  1525.00000000          0.00003224              0.16544775
  1530.00000000          0.00003232              0.16601182
  1535.00000000          0.00003239              0.16657514
  1540.00000000          0.00003247              0.16713772
  1545.00000000          0.00003254              0.16769957
  1550.00000000          0.00003262              0.16826066
  1555.00000000          0.00003269              0.16882102
  1560.00000000          0.00003276              0.16938062
  1565.00000000          0.00003284              0.16993948
  1570.00000000          0.00003291              0.17049759
  1575.00000000          0.00003298              0.17105494
  1580.00000000          0.00003306              0.17161155
  1585.00000000          0.00003313              0.17216739
  1590.00000000          0.00003320              0.17272249
  1595.00000000          0.00003328              0.17327682
  1600.00000000          0.00003335              0.17383040
  1605.00000000          0.00003342              0.17438322
  1610.00000000          0.00003350              0.17493528
  1615.00000000          0.00003357              0.17548657
  1620.00000000          0.00003364              0.17603711
  1625.00000000          0.00003371              0.17658687
  1630.00000000          0.00003379              0.17713588
  1635.00000000          0.00003386              0.17768412
  1640.00000000          0.00003393              0.17823159
  1645.00000000          0.00003400              0.17877829
  1650.00000000          0.00003407              0.17932422
  1655.00000000          0.00003415              0.17986938
  1660.00000000          0.00003422              0.18041378
  1665.00000000          0.00003429              0.18095740
  1670.00000000          0.00003436              0.18150025
  1675.00000000          0.00003443              0.18204232
  1680.00000000          0.00003450              0.18258362
  1685.00000000          0.00003457              0.18312415
  1690.00000000          0.00003464              0.18366390
  1695.00000000          0.00003472              0.18420288
  1700.00000000          0.00003479              0.18474108
  1705.00000000          0.00003486              0.18527851
  1710.00000000          0.00003493              0.18581515
  1715.00000000          0.00003500              0.18635102
  1720.00000000          0.00003507              0.18688611
  1725.00000000          0.00003514              0.18742043
  1730.00000000          0.00003521              0.18795396
  1735.00000000          0.00003528              0.18848671
  1740.00000000          0.00003535              0.18901869
  1745.00000000          0.00003542              0.18954988
  1750.00000000          0.00003549              0.19008030
  1755.00000000          0.00003556              0.19060993
  1760.00000000          0.00003563              0.19113878
  1765.00000000          0.00003570              0.19166686
  1770.00000000          0.00003577              0.19219415
  1775.00000000          0.00003584              0.19272066
  1780.00000000          0.00003591              0.19324639
  1785.00000000          0.00003598              0.19377134
  1790.00000000          0.00003605              0.19429551
  1795.00000000          0.00003612              0.19481889
  1800.00000000          0.00003618              0.19534150
  1805.00000000          0.00003625              0.19586332
  1810.00000000          0.00003632              0.19638436
  1815.00000000          0.00003639              0.19690463
  1820.00000000          0.00003646              0.19742411
  1825.00000000          0.00003653              0.19794281
  1830.00000000          0.00003660              0.19846073
  1835.00000000          0.00003666              0.19897786
  1840.00000000          0.00003673              0.19949422
  1845.00000000          0.00003680              0.20000980
  1850.00000000          0.00003687              0.20052460
