//Species Name
CO2

//Temperature [K]   Specific Heat [J/Kmol*K]    Static Enthalpy [J/Kmol]   Entropy [J/Kmol*K]
   200.00000000           2.91400381e+04          -2.86676351e+06           1.93489256e+05
   205.00000000           2.91362193e+04          -2.72107369e+06           1.94208749e+05
   210.00000000           2.91343590e+04          -2.57539806e+06           1.94910834e+05
   215.00000000           2.91344137e+04          -2.42972691e+06           1.95596377e+05
   220.00000000           2.91363403e+04          -2.28405080e+06           1.96266182e+05
   225.00000000           2.91400959e+04          -2.13836046e+06           1.96920997e+05
   230.00000000           2.91456382e+04          -1.99264686e+06           1.97561522e+05
   235.00000000           2.91529252e+04          -1.84690117e+06           1.98188409e+05
   240.00000000           2.91619154e+04          -1.70111477e+06           1.98802269e+05
   245.00000000           2.91725677e+04          -1.55527925e+06           1.99403674e+05
   250.00000000           2.91848411e+04          -1.40938639e+06           1.99993159e+05
   255.00000000           2.91986955e+04          -1.26342820e+06           2.00571230e+05
   260.00000000           2.92140909e+04          -1.11739687e+06           2.01138359e+05
   265.00000000           2.92309877e+04          -9.71284790e+05           2.01694993e+05
   270.00000000           2.92493468e+04          -8.25084555e+05           2.02241551e+05
   275.00000000           2.92691295e+04          -6.78788949e+05           2.02778431e+05
   280.00000000           2.92902974e+04          -5.32390951e+05           2.03306005e+05
   285.00000000           2.93128127e+04          -3.85883729e+05           2.03824627e+05
   290.00000000           2.93366378e+04          -2.39260641e+05           2.04334633e+05
   295.00000000           2.93617356e+04          -9.25152298e+04           2.04836338e+05
   300.00000000           2.93880695e+04           5.43587755e+04           2.05330043e+05
   305.00000000           2.94156030e+04           2.01367464e+05           2.05816033e+05
   310.00000000           2.94443003e+04           3.48516745e+05           2.06294577e+05
   315.00000000           2.94741260e+04           4.95812348e+05           2.06765932e+05
   320.00000000           2.95050449e+04           6.43259827e+05           2.07230343e+05
   325.00000000           2.95370223e+04           7.90864561e+05           2.07688040e+05
   330.00000000           2.95700240e+04           9.38631757e+05           2.08139246e+05
   335.00000000           2.96040161e+04           1.08656645e+06           2.08584170e+05
   340.00000000           2.96389652e+04           1.23467351e+06           2.09023013e+05
   345.00000000           2.96748381e+04           1.38295764e+06           2.09455967e+05
   350.00000000           2.97116022e+04           1.53142338e+06           2.09883213e+05
   355.00000000           2.97492253e+04           1.68007510e+06           2.10304926e+05
   360.00000000           2.97876754e+04           1.82891701e+06           2.10721274e+05
   365.00000000           2.98269213e+04           1.97795318e+06           2.11132414e+05
   370.00000000           2.98669317e+04           2.12718750e+06           2.11538499e+05
   375.00000000           2.99076761e+04           2.27662372e+06           2.11939676e+05
   380.00000000           2.99491243e+04           2.42626543e+06           2.12336083e+05
   385.00000000           2.99912464e+04           2.57611608e+06           2.12727854e+05
   390.00000000           3.00340129e+04           2.72617897e+06           2.13115118e+05
   395.00000000           3.00773950e+04           2.87645724e+06           2.13497997e+05
   400.00000000           3.01213639e+04           3.02695390e+06           2.13876609e+05
   405.00000000           3.01658915e+04           3.17767181e+06           2.14251068e+05
   410.00000000           3.02109499e+04           3.32861370e+06           2.14621482e+05
   415.00000000           3.02565117e+04           3.47978215e+06           2.14987955e+05
   420.00000000           3.03025500e+04           3.63117961e+06           2.15350587e+05
   425.00000000           3.03490382e+04           3.78280840e+06           2.15709475e+05
   430.00000000           3.03959500e+04           3.93467070e+06           2.16064712e+05
   435.00000000           3.04432598e+04           4.08676856e+06           2.16416387e+05
   440.00000000           3.04909420e+04           4.23910391e+06           2.16764586e+05
   445.00000000           3.05389718e+04           4.39167856e+06           2.17109390e+05
   450.00000000           3.05873245e+04           4.54449417e+06           2.17450881e+05
   455.00000000           3.06359761e+04           4.69755230e+06           2.17789134e+05
   460.00000000           3.06849027e+04           4.85085439e+06           2.18124223e+05
   465.00000000           3.07340810e+04           5.00440175e+06           2.18456220e+05
   470.00000000           3.07834881e+04           5.15819558e+06           2.18785193e+05
   475.00000000           3.08331013e+04           5.31223697e+06           2.19111210e+05
   480.00000000           3.08828986e+04           5.46652690e+06           2.19434332e+05
   485.00000000           3.09328582e+04           5.62106623e+06           2.19754624e+05
   490.00000000           3.09829588e+04           5.77585572e+06           2.20072143e+05
   495.00000000           3.10331795e+04           5.93089602e+06           2.20386948e+05
   500.00000000           3.10834997e+04           6.08618768e+06           2.20699094e+05
   505.00000000           3.11338993e+04           6.24173115e+06           2.21008635e+05
   510.00000000           3.11843586e+04           6.39752677e+06           2.21315624e+05
   515.00000000           3.12348583e+04           6.55357480e+06           2.21620110e+05
   520.00000000           3.12853795e+04           6.70987539e+06           2.21922142e+05
   525.00000000           3.13359037e+04           6.86642860e+06           2.22221767e+05
   530.00000000           3.13864127e+04           7.02323440e+06           2.22519031e+05
   535.00000000           3.14368890e+04           7.18029267e+06           2.22813978e+05
   540.00000000           3.14873152e+04           7.33760321e+06           2.23106651e+05
   545.00000000           3.15376744e+04           7.49516571e+06           2.23397090e+05
   550.00000000           3.15879502e+04           7.65297981e+06           2.23685337e+05
   555.00000000           3.16381265e+04           7.81104505e+06           2.23971429e+05
   560.00000000           3.16881875e+04           7.96936089e+06           2.24255405e+05
   565.00000000           3.17381182e+04           8.12792671e+06           2.24537302e+05
   570.00000000           3.17879035e+04           8.28674182e+06           2.24817154e+05
   575.00000000           3.18375290e+04           8.44580548e+06           2.25094995e+05
   580.00000000           3.18869807e+04           8.60511683e+06           2.25370861e+05
   585.00000000           3.19362450e+04           8.76467497e+06           2.25644782e+05
   590.00000000           3.19853086e+04           8.92447894e+06           2.25916790e+05
   595.00000000           3.20341586e+04           9.08452770e+06           2.26186916e+05
   600.00000000           3.20827826e+04           9.24482015e+06           2.26455189e+05
   605.00000000           3.21311687e+04           9.40535513e+06           2.26721638e+05
   610.00000000           3.21793051e+04           9.56613142e+06           2.26986292e+05
   615.00000000           3.22271807e+04           9.72714775e+06           2.27249177e+05
   620.00000000           3.22747847e+04           9.88840278e+06           2.27510320e+05
   625.00000000           3.23221065e+04           1.00498951e+07           2.27769746e+05
   630.00000000           3.23691363e+04           1.02116234e+07           2.28027481e+05
   635.00000000           3.24158645e+04           1.03735860e+07           2.28283550e+05
   640.00000000           3.24622817e+04           1.05357815e+07           2.28537975e+05
   645.00000000           3.25083793e+04           1.06982083e+07           2.28790781e+05
   650.00000000           3.25541489e+04           1.08608647e+07           2.29041989e+05
   655.00000000           3.25995825e+04           1.10237492e+07           2.29291621e+05
   660.00000000           3.26446724e+04           1.11868600e+07           2.29539699e+05
   665.00000000           3.26894116e+04           1.13501953e+07           2.29786244e+05
   670.00000000           3.27337932e+04           1.15137535e+07           2.30031276e+05
   675.00000000           3.27778109e+04           1.16775327e+07           2.30274815e+05
   680.00000000           3.28214587e+04           1.18415310e+07           2.30516880e+05
   685.00000000           3.28647312e+04           1.20057466e+07           2.30757489e+05
   690.00000000           3.29076230e+04           1.21701777e+07           2.30996663e+05
   695.00000000           3.29501295e+04           1.23348222e+07           2.31234417e+05
   700.00000000           3.29922464e+04           1.24996783e+07           2.31470771e+05
   705.00000000           3.30339697e+04           1.26647440e+07           2.31705741e+05
   710.00000000           3.30752958e+04           1.28300173e+07           2.31939344e+05
   715.00000000           3.31162217e+04           1.29954963e+07           2.32171596e+05
   720.00000000           3.31567446e+04           1.31611789e+07           2.32402513e+05
   725.00000000           3.31968622e+04           1.33270631e+07           2.32632111e+05
   730.00000000           3.32365726e+04           1.34931468e+07           2.32860406e+05
   735.00000000           3.32758743e+04           1.36594281e+07           2.33087411e+05
   740.00000000           3.33147662e+04           1.38259049e+07           2.33313143e+05
   745.00000000           3.33532475e+04           1.39925751e+07           2.33537616e+05
   750.00000000           3.33913180e+04           1.41594367e+07           2.33760843e+05
   755.00000000           3.34289778e+04           1.43264876e+07           2.33982838e+05
   760.00000000           3.34662274e+04           1.44937258e+07           2.34203615e+05
   765.00000000           3.35030677e+04           1.46611492e+07           2.34423187e+05
   770.00000000           3.35395001e+04           1.48287558e+07           2.34641568e+05
   775.00000000           3.35755262e+04           1.49965435e+07           2.34858770e+05
   780.00000000           3.36111482e+04           1.51645104e+07           2.35074805e+05
   785.00000000           3.36463687e+04           1.53326543e+07           2.35289686e+05
   790.00000000           3.36811905e+04           1.55009734e+07           2.35503425e+05
   795.00000000           3.37156171e+04           1.56694656e+07           2.35716034e+05
   800.00000000           3.37496521e+04           1.58381289e+07           2.35927525e+05
   805.00000000           3.37832998e+04           1.60069615e+07           2.36137908e+05
   810.00000000           3.38165646e+04           1.61759613e+07           2.36347197e+05
   815.00000000           3.38494516e+04           1.63451265e+07           2.36555400e+05
   820.00000000           3.38819661e+04           1.65144552e+07           2.36762531e+05
   825.00000000           3.39141139e+04           1.66839455e+07           2.36968599e+05
   830.00000000           3.39459012e+04           1.68535957e+07           2.37173615e+05
   835.00000000           3.39773345e+04           1.70234039e+07           2.37377589e+05
   840.00000000           3.40084208e+04           1.71933685e+07           2.37580532e+05
   845.00000000           3.40391676e+04           1.73634876e+07           2.37782455e+05
   850.00000000           3.40695825e+04           1.75337596e+07           2.37983366e+05
   855.00000000           3.40996740e+04           1.77041829e+07           2.38183276e+05
   860.00000000           3.41294504e+04           1.78747558e+07           2.38382196e+05
   865.00000000           3.41589208e+04           1.80454769e+07           2.38580134e+05
   870.00000000           3.41880947e+04           1.82163445e+07           2.38777100e+05
   875.00000000           3.42169819e+04           1.83873573e+07           2.38973103e+05
   880.00000000           3.42455926e+04           1.85585139e+07           2.39168154e+05
   885.00000000           3.42739373e+04           1.87298128e+07           2.39362261e+05
   890.00000000           3.43020272e+04           1.89012528e+07           2.39555433e+05
   895.00000000           3.43298737e+04           1.90728327e+07           2.39747680e+05
   900.00000000           3.43574886e+04           1.92445512e+07           2.39939010e+05
   905.00000000           3.43848842e+04           1.94164072e+07           2.40129433e+05
   910.00000000           3.44120731e+04           1.95883997e+07           2.40318957e+05
   915.00000000           3.44390684e+04           1.97605276e+07           2.40507590e+05
   920.00000000           3.44658835e+04           1.99327901e+07           2.40695343e+05
   925.00000000           3.44925323e+04           2.01051862e+07           2.40882222e+05
   930.00000000           3.45190290e+04           2.02777151e+07           2.41068238e+05
   935.00000000           3.45453884e+04           2.04503762e+07           2.41253398e+05
   940.00000000           3.45716255e+04           2.06231688e+07           2.41437710e+05
   945.00000000           3.45977558e+04           2.07960923e+07           2.41621184e+05
   950.00000000           3.46237952e+04           2.09691462e+07           2.41803827e+05
   955.00000000           3.46497599e+04           2.11423301e+07           2.41985647e+05
   960.00000000           3.46756667e+04           2.13156437e+07           2.42166654e+05
   965.00000000           3.47015327e+04           2.14890867e+07           2.42346855e+05
   970.00000000           3.47273754e+04           2.16626590e+07           2.42526258e+05
   975.00000000           3.47532126e+04           2.18363605e+07           2.42704872e+05
   980.00000000           3.47790627e+04           2.20101912e+07           2.42882704e+05
   985.00000000           3.48049444e+04           2.21841512e+07           2.43059763e+05
   990.00000000           3.48308769e+04           2.23582407e+07           2.43236057e+05
   995.00000000           3.48568796e+04           2.25324600e+07           2.43411593e+05
  1000.00000000           3.48829725e+04           2.27068096e+07           2.43586380e+05
  1005.00000000           3.49008558e+04           2.28812692e+07           2.43760404e+05
  1010.00000000           3.49187030e+04           2.30558181e+07           2.43933654e+05
  1015.00000000           3.49365141e+04           2.32304562e+07           2.44106137e+05
  1020.00000000           3.49542892e+04           2.34051832e+07           2.44277859e+05
  1025.00000000           3.49720285e+04           2.35799990e+07           2.44448828e+05
  1030.00000000           3.49897320e+04           2.37549034e+07           2.44619052e+05
  1035.00000000           3.50073998e+04           2.39298962e+07           2.44788537e+05
  1040.00000000           3.50250320e+04           2.41049773e+07           2.44957290e+05
  1045.00000000           3.50426287e+04           2.42801465e+07           2.45125318e+05
  1050.00000000           3.50601901e+04           2.44554036e+07           2.45292628e+05
  1055.00000000           3.50777161e+04           2.46307484e+07           2.45459227e+05
  1060.00000000           3.50952069e+04           2.48061807e+07           2.45625121e+05
  1065.00000000           3.51126626e+04           2.49817004e+07           2.45790316e+05
  1070.00000000           3.51300833e+04           2.51573072e+07           2.45954819e+05
  1075.00000000           3.51474691e+04           2.53330011e+07           2.46118636e+05
  1080.00000000           3.51648200e+04           2.55087819e+07           2.46281774e+05
  1085.00000000           3.51821362e+04           2.56846493e+07           2.46444239e+05
  1090.00000000           3.51994177e+04           2.58606032e+07           2.46606036e+05
  1095.00000000           3.52166647e+04           2.60366434e+07           2.46767171e+05
  1100.00000000           3.52338773e+04           2.62127698e+07           2.46927651e+05
  1105.00000000           3.52510554e+04           2.63889821e+07           2.47087481e+05
  1110.00000000           3.52681993e+04           2.65652803e+07           2.47246667e+05
  1115.00000000           3.52853090e+04           2.67416640e+07           2.47405214e+05
  1120.00000000           3.53023846e+04           2.69181333e+07           2.47563129e+05
  1125.00000000           3.53194263e+04           2.70946878e+07           2.47720416e+05
  1130.00000000           3.53364340e+04           2.72713275e+07           2.47877081e+05
  1135.00000000           3.53534079e+04           2.74480521e+07           2.48033130e+05
  1140.00000000           3.53703481e+04           2.76248615e+07           2.48188567e+05
  1145.00000000           3.53872546e+04           2.78017555e+07           2.48343397e+05
  1150.00000000           3.54041276e+04           2.79787340e+07           2.48497627e+05
  1155.00000000           3.54209672e+04           2.81557968e+07           2.48651261e+05
  1160.00000000           3.54377734e+04           2.83329436e+07           2.48804304e+05
  1165.00000000           3.54545463e+04           2.85101744e+07           2.48956761e+05
  1170.00000000           3.54712861e+04           2.86874890e+07           2.49108636e+05
  1175.00000000           3.54879928e+04           2.88648873e+07           2.49259936e+05
  1180.00000000           3.55046665e+04           2.90423689e+07           2.49410664e+05
  1185.00000000           3.55213072e+04           2.92199339e+07           2.49560824e+05
  1190.00000000           3.55379152e+04           2.93975819e+07           2.49710423e+05
  1195.00000000           3.55544904e+04           2.95753130e+07           2.49859464e+05
  1200.00000000           3.55710330e+04           2.97531268e+07           2.50007952e+05
  1205.00000000           3.55875431e+04           2.99310232e+07           2.50155891e+05
  1210.00000000           3.56040207e+04           3.01090022e+07           2.50303285e+05
  1215.00000000           3.56204659e+04           3.02870634e+07           2.50450140e+05
  1220.00000000           3.56368789e+04           3.04652068e+07           2.50596459e+05
  1225.00000000           3.56532597e+04           3.06434321e+07           2.50742247e+05
  1230.00000000           3.56696083e+04           3.08217393e+07           2.50887508e+05
  1235.00000000           3.56859250e+04           3.10001282e+07           2.51032245e+05
  1240.00000000           3.57022097e+04           3.11785985e+07           2.51176464e+05
  1245.00000000           3.57184626e+04           3.13571502e+07           2.51320168e+05
  1250.00000000           3.57346838e+04           3.15357831e+07           2.51463361e+05
  1255.00000000           3.57508732e+04           3.17144970e+07           2.51606046e+05
  1260.00000000           3.57670312e+04           3.18932918e+07           2.51748229e+05
  1265.00000000           3.57831576e+04           3.20721672e+07           2.51889913e+05
  1270.00000000           3.57992526e+04           3.22511233e+07           2.52031101e+05
  1275.00000000           3.58153164e+04           3.24301597e+07           2.52171798e+05
  1280.00000000           3.58313489e+04           3.26092764e+07           2.52312007e+05
  1285.00000000           3.58473502e+04           3.27884732e+07           2.52451732e+05
